t,v
0.0,
0.004,0.26
0.008,0.27
0.012,0.27
0.016,0.27
0.02,0.27
0.024,0.27
0.027999999999999997,0.27
0.032,0.27
0.036000000000000004,0.27
0.04,0.27
0.044000000000000004,0.27
0.048,0.27
0.052000000000000005,0.27
0.055999999999999994,0.27
0.06,0.27
0.064,0.27
0.068,0.27
0.07200000000000001,0.27
0.076,0.27
0.08,0.27
0.084,0.27
0.08800000000000001,0.27
0.092,0.27
0.096,0.27
0.1,0.27
0.10400000000000001,0.27
0.10800000000000001,0.27
0.11199999999999999,0.27
0.11599999999999999,0.27
0.12,0.27
0.12400000000000001,0.27
0.128,0.27
0.132,0.27
0.136,0.27
0.14,0.27
0.14400000000000002,0.27
0.14800000000000002,0.27
0.152,0.27
0.156,0.27
0.16,0.27
0.16399999999999998,0.26
0.168,0.26
0.172,0.26
0.17600000000000002,0.26
0.18,1.2400000000000002
0.184,2.22
0.188,2.23
0.192,2.23
0.196,2.23
0.2,2.23
0.204,2.23
0.20800000000000002,2.23
0.212,2.23
0.21600000000000003,2.23
0.22,2.23
0.22399999999999998,2.23
0.228,2.23
0.23199999999999998,2.23
0.23600000000000002,2.23
0.24,2.23
0.244,2.23
0.24800000000000003,2.23
0.252,2.23
0.256,2.23
0.26,2.23
0.264,2.23
0.268,2.23
0.272,2.23
0.276,2.23
0.28,2.23
0.284,2.23
0.28800000000000003,2.23
0.292,2.23
0.29600000000000004,2.23
0.3,2.23
0.304,2.23
0.308,2.23
0.312,2.23
0.316,2.23
0.32,2.23
0.324,2.23
0.32799999999999996,2.23
0.332,2.23
0.336,2.23
0.34,2.23
0.344,2.23
0.348,2.23
0.35200000000000004,2.23
0.35600000000000004,2.23
0.36,2.23
0.364,2.23
0.368,2.23
0.37200000000000005,2.23
0.376,1.25
0.38,0.27
0.384,0.27
0.38799999999999996,0.27
0.392,0.27
0.396,0.27
0.4,0.27
0.40399999999999997,0.27
0.408,0.27
0.41200000000000003,0.27
0.41600000000000004,0.27
0.42,0.27
0.424,0.27
0.428,0.27
0.43200000000000005,0.27
0.436,0.27
0.44,0.27
0.444,0.27
0.44799999999999995,0.27
0.452,0.27
0.456,0.27
0.46,0.27
0.46399999999999997,0.27
0.46799999999999997,0.27
0.47200000000000003,0.27
0.47600000000000003,0.27
0.48,0.27
0.484,0.27
0.488,0.27
0.49200000000000005,0.27
0.49600000000000005,0.27
0.5,0.27
0.504,0.27
0.508,0.27
0.512,0.27
0.516,0.27
0.52,0.27
0.524,0.27
0.528,0.27
0.532,0.27
0.536,0.27
0.54,0.27
0.544,0.27
0.5479999999999999,0.27
0.552,0.27
0.556,0.27
0.56,0.27
0.564,0.27
0.568,0.26
0.5720000000000001,0.26
0.5760000000000001,-0.1
0.58,-0.1
0.584,-0.1
0.588,-0.11000000000000001
0.5920000000000001,-0.11000000000000001
0.596,-0.11000000000000001
0.6,-0.11000000000000001
0.604,-0.11000000000000001
0.608,-0.12
0.612,-0.12
0.616,-0.12
0.62,-0.12
0.624,-0.11000000000000001
0.628,-0.11000000000000001
0.632,-0.11000000000000001
0.636,-0.11000000000000001
0.64,-0.11000000000000001
0.644,-0.1
0.648,-0.095
0.652,-0.09000000000000001
0.6559999999999999,-0.08000000000000002
0.66,-0.06999999999999999
0.664,-0.06999999999999999
0.668,-0.06
0.672,1.36
0.6759999999999999,1.36
0.68,1.36
0.684,2.0425
0.688,2.0225000000000004
0.6920000000000001,2.1300000000000003
0.696,1.7666666666666668
0.7000000000000001,2.191666666666667
0.7040000000000001,1.9425000000000001
0.708,1.7100000000000002
0.7120000000000001,1.9050000000000002
0.716,1.8825
0.72,1.8600000000000003
0.7240000000000001,1.8375000000000001
0.728,1.215
0.7320000000000001,1.215
0.736,1.6033333333333335
0.74,1.8075
0.7440000000000001,1.21
0.748,1.215
0.752,1.22
0.756,1.6366666666666667
0.76,1.8600000000000003
0.7640000000000001,1.8825
0.768,1.9050000000000002
0.772,1.54
0.7759999999999999,1.7333333333333334
0.78,1.7533333333333332
0.784,1.9925000000000002
0.788,2.015
0.792,1.806666666666667
0.7959999999999999,2.0524999999999998
0.8,1.375
0.804,1.3800000000000001
0.8079999999999999,1.385
0.812,1.3900000000000001
0.816,0.0
0.8200000000000001,0.0
0.8240000000000001,0.0
0.828,0.0
0.8320000000000001,0.0
0.836,0.0
0.84,0.0
0.8440000000000001,0.0
0.848,1.3250000000000002
0.8520000000000001,1.3250000000000002
0.856,1.33
0.86,1.3250000000000002
0.8640000000000001,0.8933333333333334
0.868,1.345
0.872,2.02
0.876,2.3142857142857145
0.88,1.36
0.8840000000000001,0.4266666666666666
0.888,0.26
0.892,0.19875
0.8959999999999999,2.2600000000000002
0.9,1.1987500000000002
0.904,0.21000000000000002
0.908,-0.34500000000000003
0.912,-0.4
0.9159999999999999,-0.455
0.92,-0.5
0.924,-0.555
0.9279999999999999,-0.605
0.932,-0.655
0.9359999999999999,-0.7200000000000001
0.9400000000000001,-0.775
0.9440000000000001,-0.81
0.948,-0.8300000000000001
0.9520000000000001,-0.8685714285714283
0.956,-0.86
0.96,-0.81
0.9640000000000001,-0.78
0.968,-0.735
0.9720000000000001,-0.665
0.976,-0.5900000000000001
0.98,-0.52
0.9840000000000001,-0.45999999999999996
0.988,-0.42000000000000004
0.9920000000000001,-0.375
0.996,-0.305
1.0,-0.24
1.004,-0.18500000000000003
1.008,-0.135
1.012,-0.09000000000000001
1.016,-0.03
1.02,0.034999999999999996
1.024,0.07500000000000001
1.028,0.08000000000000002
1.032,0.07500000000000001
1.036,0.06999999999999999
1.04,0.065
1.044,0.05
1.048,0.034999999999999996
1.052,0.03
1.056,0.015
1.06,0.0
1.064,-0.005000000000000001
1.068,-0.010000000000000002
1.072,-0.010000000000000002
1.076,-0.010000000000000002
1.08,0.0
1.084,-0.010000000000000002
1.088,-0.010000000000000002
1.092,0.0
1.0959999999999999,0.0
1.1,0.0
1.104,0.0
1.108,0.0
1.112,0.0
1.1159999999999999,0.0
1.12,0.0
1.124,0.0
1.128,0.0
1.1320000000000001,0.0
1.136,0.0
1.1400000000000001,0.0
1.1440000000000001,0.0
1.148,0.0
1.1520000000000001,0.010000000000000002
1.156,0.010000000000000002
1.16,0.0
1.1640000000000001,-0.010000000000000002
1.168,-0.010000000000000002
1.1720000000000002,-0.010000000000000002
1.176,-0.010000000000000002
1.18,0.0
1.1840000000000002,0.0
1.188,0.0
1.192,0.0
1.196,0.0
1.2,0.0
1.2040000000000002,-0.010000000000000002
1.208,-0.010000000000000002
1.212,-0.020000000000000004
1.216,-0.03
1.22,-0.04000000000000001
1.224,-0.05
1.228,-0.05
1.232,-0.06
1.236,-0.06999999999999999
1.24,-0.08000000000000002
1.244,-0.08000000000000002
1.248,-0.09000000000000001
1.252,-0.09000000000000001
1.256,-0.1
1.26,-0.11499999999999999
1.264,-0.13
1.268,-0.13999999999999999
1.272,-0.15000000000000002
1.276,-0.16000000000000003
1.28,-0.17
1.284,-0.18000000000000002
1.288,-0.19
1.2919999999999998,-0.19
1.296,-0.2
1.3,-0.21000000000000002
1.304,-0.21000000000000002
1.308,-0.22000000000000003
1.3119999999999998,-0.22999999999999998
1.316,-0.22999999999999998
1.32,-0.24
1.324,-0.24
1.328,-0.24
1.3319999999999999,-0.24500000000000002
1.336,-0.25
1.34,-0.25
1.344,-0.26
1.348,-0.26
1.3519999999999999,-0.26
1.3559999999999999,-0.26
1.36,-0.26
1.364,-0.26
1.368,-0.27
1.3719999999999999,-0.27
1.376,-0.27
1.3800000000000001,-0.27
1.3840000000000001,-0.27
1.3880000000000001,-0.27
1.392,-0.265
1.396,-0.26
1.4000000000000001,-0.26
1.4040000000000001,-0.26
1.4080000000000001,-0.26
1.412,-0.26
1.416,-0.26
1.42,-0.26
1.4240000000000002,-0.25
1.4280000000000002,-0.24
1.432,-0.24
1.436,-0.22999999999999998
1.44,-0.22999999999999998
1.4440000000000002,-0.22999999999999998
1.4480000000000002,-0.22000000000000003
1.452,-0.22000000000000003
1.456,-0.21000000000000002
1.46,-0.2
1.4640000000000002,-0.19
1.4680000000000002,-0.18000000000000002
1.472,-0.17
1.476,-0.17
1.48,-0.15500000000000003
1.484,-0.13999999999999999
1.4880000000000002,-0.13
1.492,-0.12
1.496,-0.10500000000000001
1.5,-0.09000000000000001
1.504,-0.085
1.5080000000000002,-0.08000000000000002
1.512,-0.07500000000000001
1.516,-0.06999999999999999
1.52,-0.05
1.524,-0.04000000000000001
1.5280000000000002,-0.04000000000000001
1.532,-0.04000000000000001
1.536,-0.03
1.54,-0.03
1.544,-0.020000000000000004
1.548,-0.010000000000000002
1.5519999999999998,-0.010000000000000002
1.556,0.0
1.56,0.0
1.564,0.010000000000000002
1.568,0.0
1.5719999999999998,0.0
1.576,0.0
1.58,0.0
1.584,0.0
1.588,0.010000000000000002
1.5919999999999999,0.010000000000000002
1.596,0.010000000000000002
1.6,0.010000000000000002
1.604,0.010000000000000002
1.608,0.0
1.6119999999999999,0.0
1.6159999999999999,0.0
1.62,0.0
1.624,0.010000000000000002
1.6280000000000001,0.010000000000000002
1.632,0.010000000000000002
1.636,0.010000000000000002
1.6400000000000001,0.010000000000000002
1.6440000000000001,0.010000000000000002
1.6480000000000001,0.010000000000000002
1.652,0.010000000000000002
1.656,0.010000000000000002
1.6600000000000001,0.010000000000000002
1.6640000000000001,0.0
1.6680000000000001,0.0
1.672,0.0
1.676,0.0
1.68,0.0
1.6840000000000002,0.0
1.6880000000000002,0.0
1.692,0.0
1.696,0.0
1.7,0.0
1.7040000000000002,0.0
1.7080000000000002,0.0
1.712,0.0
1.716,0.0
1.72,0.0
1.7240000000000002,0.0
1.7280000000000002,0.0
1.732,0.0
1.736,0.0
1.74,0.0
1.744,0.0
1.7480000000000002,0.0
1.752,0.0
1.756,0.0
1.76,0.0
1.764,0.010000000000000002
1.7680000000000002,0.010000000000000002
1.772,0.010000000000000002
1.776,0.010000000000000002
1.78,0.010000000000000002
1.784,0.010000000000000002
1.7880000000000003,0.0
1.7919999999999998,0.0
1.796,0.0
1.8,0.0
1.804,0.0
1.808,0.0
1.8119999999999998,0.0
1.816,0.0
1.82,0.0
1.824,0.0
1.828,0.0
1.8319999999999999,0.0
1.836,0.0
1.84,0.0
1.844,0.0
1.848,0.0
1.8519999999999999,0.0
1.8559999999999999,0.0
1.86,0.0
1.864,0.0
1.868,0.0
1.8719999999999999,0.0
1.876,0.0
1.8800000000000001,0.0
1.8840000000000001,0.0
1.8880000000000001,0.0
1.892,0.0
1.896,0.0
1.9000000000000001,0.0
1.9040000000000001,0.0
1.9080000000000001,0.0
1.912,0.0
1.916,0.0
1.92,0.0
1.9240000000000002,0.0
1.9280000000000002,0.0
1.932,0.0
1.936,0.0
1.94,0.0
1.9440000000000002,0.0
1.9480000000000002,0.005000000000000001
1.952,0.010000000000000002
1.956,0.010000000000000002
1.96,0.010000000000000002
1.9640000000000002,0.010000000000000002
1.9680000000000002,0.010000000000000002
1.972,0.010000000000000002
1.976,0.0
1.98,0.0
1.9840000000000002,0.0
1.9880000000000002,0.0
1.992,0.0
1.996,0.0
2.0,0.0
2.004,-0.010000000000000002
2.008,-0.010000000000000002
2.012,-0.020000000000000004
2.016,-0.034999999999999996
2.02,-0.04000000000000001
2.024,-0.045000000000000005
2.028,-0.05
2.032,-0.05
2.036,-0.06
2.04,-0.06
2.044,-0.06999999999999999
2.048,-0.08000000000000002
2.052,-0.08000000000000002
2.056,-0.09000000000000001
2.06,-0.1
2.064,-0.1
2.068,-0.1
2.072,-0.1
2.076,-0.1
2.08,-0.1
2.084,-0.11000000000000001
2.088,-0.11000000000000001
2.092,-0.11000000000000001
2.096,-0.11000000000000001
2.1,-0.11000000000000001
2.104,-0.11000000000000001
2.108,-0.1
2.112,-0.1
2.116,-0.1
2.12,-0.09000000000000001
2.124,-0.08000000000000002
2.128,-0.08000000000000002
2.132,-0.06999999999999999
2.136,-0.06999999999999999
2.14,-0.06
2.144,-0.05
2.148,-0.04000000000000001
2.152,-0.04000000000000001
2.156,-0.03
2.16,-0.015
2.164,-0.010000000000000002
2.168,-0.005000000000000001
2.172,0.0
2.176,0.0
2.18,0.0
2.184,0.005000000000000001
2.188,0.010000000000000002
2.1919999999999997,0.010000000000000002
2.196,0.010000000000000002
2.2,0.010000000000000002
2.204,0.010000000000000002
2.208,0.010000000000000002
2.2119999999999997,0.010000000000000002
2.216,0.010000000000000002
2.22,0.0
2.224,0.0
2.228,0.0
2.2319999999999998,0.0
2.236,0.010000000000000002
2.24,0.010000000000000002
2.244,0.010000000000000002
2.248,0.010000000000000002
2.252,0.010000000000000002
2.256,0.010000000000000002
2.2600000000000002,0.010000000000000002
2.2640000000000002,0.010000000000000002
2.2680000000000002,0.010000000000000002
2.272,0.010000000000000002
2.276,0.010000000000000002
2.2800000000000002,0.010000000000000002
2.2840000000000003,0.010000000000000002
2.2880000000000003,0.010000000000000002
2.292,0.010000000000000002
2.296,0.010000000000000002
2.3000000000000003,0.010000000000000002
2.3040000000000003,0.010000000000000002
2.3080000000000003,0.010000000000000002
2.312,0.010000000000000002
2.316,0.010000000000000002
2.32,0.03
2.3240000000000003,0.020000000000000004
2.3280000000000003,0.020000000000000004
2.332,0.020000000000000004
2.336,0.025
2.34,0.03
2.3440000000000003,0.034999999999999996
2.3480000000000003,0.04000000000000001
2.352,0.04000000000000001
2.356,0.010000000000000002
2.36,-0.04000000000000001
2.3640000000000003,-0.1
2.3680000000000003,-0.15500000000000003
2.372,-0.19
2.376,-0.23500000000000001
2.38,-0.30000000000000004
2.384,-0.355
2.3880000000000003,-0.4
2.392,-0.44500000000000006
2.396,-0.49000000000000005
2.4,-0.55
2.404,-0.6150000000000001
2.4080000000000004,-0.665
2.412,-0.7050000000000001
2.416,-0.7450000000000001
2.42,-0.8075
2.424,-0.8525
2.4280000000000004,-0.862
2.432,-0.8650000000000001
2.436,-0.8400000000000001
2.44,-0.79
2.444,-0.71
2.448,-0.6400000000000001
2.452,-0.5750000000000001
2.456,-0.52
2.46,-0.47500000000000003
2.464,-0.42000000000000004
2.468,-0.35000000000000003
2.472,-0.29500000000000004
2.476,-0.255
2.48,-0.205
2.484,-0.13999999999999999
2.488,-0.06999999999999999
2.492,-0.005000000000000001
2.496,0.04000000000000001
2.5,0.065
2.504,0.08000000000000002
2.508,0.06999999999999999
2.512,0.06999999999999999
2.516,0.06
2.52,0.05
2.524,0.04000000000000001
2.528,0.04000000000000001
2.532,0.04000000000000001
2.536,0.03
2.54,0.010000000000000002
2.544,0.010000000000000002
2.548,0.010000000000000002
2.552,0.010000000000000002
2.556,0.010000000000000002
2.56,0.010000000000000002
2.5639999999999996,0.010000000000000002
2.568,0.010000000000000002
2.572,0.010000000000000002
2.576,0.020000000000000004
2.58,0.010000000000000002
2.5839999999999996,0.010000000000000002
2.588,0.010000000000000002
2.592,0.010000000000000002
2.596,0.010000000000000002
2.6,0.010000000000000002
2.6039999999999996,0.020000000000000004
2.608,0.020000000000000004
2.612,0.020000000000000004
2.616,0.020000000000000004
2.62,0.020000000000000004
2.6239999999999997,0.020000000000000004
2.628,0.020000000000000004
2.632,0.020000000000000004
2.636,0.020000000000000004
2.64,0.020000000000000004
2.6439999999999997,0.020000000000000004
2.648,0.020000000000000004
2.652,0.020000000000000004
2.656,0.020000000000000004
2.66,0.020000000000000004
2.6639999999999997,0.020000000000000004
2.668,0.020000000000000004
2.672,0.020000000000000004
2.676,0.010000000000000002
2.68,0.010000000000000002
2.6839999999999997,0.0
2.688,-0.010000000000000002
2.6919999999999997,-0.015
2.696,-0.020000000000000004
2.7,-0.025
2.7039999999999997,-0.045000000000000005
2.708,-0.05
2.7119999999999997,-0.05500000000000001
2.716,-0.06
2.72,-0.06999999999999999
2.7239999999999998,-0.06999999999999999
2.728,-0.08000000000000002
2.7319999999999998,-0.095
2.736,-0.11000000000000001
2.74,-0.12
2.7439999999999998,-0.12
2.748,-0.13
2.752,-0.13999999999999999
2.7560000000000002,-0.15000000000000002
2.7600000000000002,-0.15000000000000002
2.764,-0.16000000000000003
2.7680000000000002,-0.17500000000000002
2.772,-0.19
2.7760000000000002,-0.2
2.7800000000000002,-0.2
2.784,-0.21000000000000002
2.7880000000000003,-0.22000000000000003
2.792,-0.22000000000000003
2.7960000000000003,-0.22999999999999998
2.8000000000000003,-0.22999999999999998
2.804,-0.22999999999999998
2.8080000000000003,-0.22999999999999998
2.812,-0.22999999999999998
2.8160000000000003,-0.22999999999999998
2.82,-0.24
2.824,-0.24
2.8280000000000003,-0.24
2.832,-0.25
2.8360000000000003,-0.25
2.84,-0.25
2.844,-0.25
2.8480000000000003,-0.25
2.852,-0.25
2.8560000000000003,-0.25
2.86,-0.25
2.864,-0.25
2.8680000000000003,-0.25
2.872,-0.24
2.8760000000000003,-0.25
2.88,-0.25
2.884,-0.25
2.8880000000000003,-0.24
2.892,-0.24
2.8960000000000004,-0.24
2.9,-0.22999999999999998
2.904,-0.22999999999999998
2.9080000000000004,-0.22999999999999998
2.912,-0.22999999999999998
2.9160000000000004,-0.22000000000000003
2.92,-0.21000000000000002
2.924,-0.21000000000000002
2.9280000000000004,-0.2
2.932,-0.2
2.9360000000000004,-0.19
2.94,-0.17500000000000002
2.944,-0.17
2.948,-0.165
2.952,-0.15000000000000002
2.9560000000000004,-0.13999999999999999
2.96,-0.125
2.964,-0.12
2.968,-0.11499999999999999
2.972,-0.1
2.9760000000000004,-0.09000000000000001
2.98,-0.08000000000000002
2.984,-0.065
2.988,-0.06
2.992,-0.05500000000000001
2.9960000000000004,-0.05
3.0,-0.04000000000000001
3.004,-0.03
3.008,-0.03
3.012,-0.020000000000000004
3.0160000000000005,-0.010000000000000002
3.02,-0.010000000000000002
3.024,0.0
3.028,0.010000000000000002
3.032,0.020000000000000004
3.0360000000000005,0.020000000000000004
3.04,0.020000000000000004
3.044,0.020000000000000004
3.048,0.020000000000000004
3.052,0.020000000000000004
3.0560000000000005,0.020000000000000004
3.06,0.020000000000000004
3.064,0.020000000000000004
3.068,0.020000000000000004
3.072,0.020000000000000004
3.0760000000000005,0.020000000000000004
3.08,0.020000000000000004
3.0839999999999996,0.020000000000000004
3.088,0.020000000000000004
3.092,0.020000000000000004
3.096,0.020000000000000004
3.1,0.020000000000000004
3.1039999999999996,0.020000000000000004
3.108,0.020000000000000004
3.112,0.020000000000000004
3.116,0.020000000000000004
3.12,0.020000000000000004
3.1239999999999997,0.020000000000000004
3.128,0.020000000000000004
3.132,0.020000000000000004
3.136,0.020000000000000004
3.14,0.020000000000000004
3.1439999999999997,0.020000000000000004
3.148,0.020000000000000004
3.152,0.010000000000000002
3.156,0.010000000000000002
3.16,0.010000000000000002
3.1639999999999997,0.010000000000000002
3.168,0.010000000000000002
3.172,0.020000000000000004
3.176,0.010000000000000002
3.18,0.010000000000000002
3.1839999999999997,0.010000000000000002
3.188,0.010000000000000002
3.192,0.010000000000000002
3.196,0.010000000000000002
3.2,0.010000000000000002
3.2039999999999997,0.020000000000000004
3.208,0.020000000000000004
3.2119999999999997,0.020000000000000004
3.216,0.020000000000000004
3.22,0.020000000000000004
3.2239999999999998,0.020000000000000004
3.228,0.010000000000000002
3.2319999999999998,0.010000000000000002
3.236,0.010000000000000002
3.24,0.010000000000000002
3.2439999999999998,0.010000000000000002
3.248,0.010000000000000002
3.252,0.010000000000000002
3.2560000000000002,0.010000000000000002
3.2600000000000002,0.0
3.264,0.010000000000000002
3.2680000000000002,0.010000000000000002
3.272,0.010000000000000002
3.2760000000000002,0.010000000000000002
3.2800000000000002,0.010000000000000002
3.284,0.010000000000000002
3.2880000000000003,0.010000000000000002
3.292,0.010000000000000002
3.2960000000000003,0.010000000000000002
3.3000000000000003,0.010000000000000002
3.304,0.010000000000000002
3.3080000000000003,0.010000000000000002
3.312,0.010000000000000002
3.3160000000000003,0.010000000000000002
3.3200000000000003,0.010000000000000002
3.324,0.010000000000000002
3.3280000000000003,0.010000000000000002
3.332,0.010000000000000002
3.3360000000000003,0.010000000000000002
3.34,0.010000000000000002
3.344,0.010000000000000002
3.3480000000000003,0.010000000000000002
3.352,0.010000000000000002
3.3560000000000003,0.010000000000000002
3.36,0.010000000000000002
3.364,0.010000000000000002
3.3680000000000003,0.010000000000000002
3.372,0.010000000000000002
3.3760000000000003,0.010000000000000002
3.38,0.010000000000000002
3.384,0.010000000000000002
3.3880000000000003,0.010000000000000002
3.392,0.010000000000000002
3.3960000000000004,0.010000000000000002
3.4,0.010000000000000002
3.404,0.010000000000000002
3.4080000000000004,0.010000000000000002
3.412,0.010000000000000002
3.4160000000000004,0.010000000000000002
3.42,0.0
3.424,0.010000000000000002
3.4280000000000004,0.010000000000000002
3.432,0.010000000000000002
3.4360000000000004,0.010000000000000002
3.44,0.010000000000000002
3.444,0.010000000000000002
3.4480000000000004,0.0
3.452,0.0
3.4560000000000004,0.0
3.46,0.010000000000000002
3.464,0.010000000000000002
3.468,0.010000000000000002
3.472,0.010000000000000002
3.4760000000000004,0.010000000000000002
3.48,0.010000000000000002
3.484,0.0
3.488,-0.010000000000000002
3.492,-0.020000000000000004
3.4960000000000004,-0.020000000000000004
3.5,-0.03
3.504,-0.04000000000000001
3.508,-0.04000000000000001
3.512,-0.05
3.5160000000000005,-0.06
3.52,-0.06
3.524,-0.06999999999999999
3.528,-0.08000000000000002
3.532,-0.09000000000000001
3.5360000000000005,-0.095
3.54,-0.1
3.544,-0.10500000000000001
3.548,-0.10500000000000001
3.552,-0.11000000000000001
3.5560000000000005,-0.11000000000000001
3.56,-0.11000000000000001
3.564,-0.11000000000000001
3.568,-0.11000000000000001
3.572,-0.11000000000000001
3.5760000000000005,-0.11000000000000001
3.58,-0.11000000000000001
3.5839999999999996,-0.1
3.588,-0.1
3.592,-0.09000000000000001
3.596,-0.08000000000000002
3.6,-0.08000000000000002
3.6039999999999996,-0.06999999999999999
3.608,-0.06999999999999999
3.612,-0.06
3.616,-0.06
3.62,-0.06
3.6239999999999997,-0.05500000000000001
3.628,-0.05
3.632,-0.045000000000000005
3.636,-0.03
3.64,-0.020000000000000004
3.6439999999999997,-0.010000000000000002
3.648,0.0
3.652,0.0
3.656,0.0
3.66,0.0
3.6639999999999997,0.0
3.668,0.0
3.672,0.0
3.676,0.0
3.68,0.0
3.6839999999999997,0.0
3.688,0.0
3.692,0.0
3.696,0.010000000000000002
3.7,0.010000000000000002
3.7039999999999997,0.010000000000000002
3.708,0.010000000000000002
3.7119999999999997,0.010000000000000002
3.716,0.0
3.72,0.0
3.7239999999999998,0.0
3.728,0.010000000000000002
3.7319999999999998,0.010000000000000002
3.736,0.010000000000000002
3.74,0.010000000000000002
3.7439999999999998,0.0
3.748,0.0
3.752,0.0
3.7560000000000002,0.0
3.7600000000000002,0.0
3.764,0.0
3.7680000000000002,0.0
3.772,0.0
3.7760000000000002,0.0
3.7800000000000002,0.0
3.784,0.0
3.7880000000000003,0.0
3.792,0.0
3.7960000000000003,0.0
3.8000000000000003,0.0
3.804,0.0
3.8080000000000003,0.0
3.812,0.010000000000000002
3.8160000000000003,0.010000000000000002
3.8200000000000003,0.010000000000000002
3.824,0.020000000000000004
3.8280000000000003,0.026666666666666856
3.832,-0.005000000000000001
3.8360000000000003,-0.034999999999999996
3.84,-0.065
3.844,-0.11000000000000001
3.8480000000000003,-0.18000000000000002
3.852,-0.25166666666666687
3.8560000000000003,-0.29
3.86,-0.3275
3.864,-0.38
3.8680000000000003,-0.43
3.872,-0.49000000000000005
3.8760000000000003,-0.545
3.88,-0.5950000000000001
3.884,-0.645
3.8880000000000003,-0.6900000000000001
3.892,-0.75
3.8960000000000004,-0.82
3.9,-0.86
3.904,-0.87
3.9080000000000004,-0.8960000000000004
3.912,-0.8400000000000001
3.9160000000000004,-0.78
3.92,-0.7000000000000001
3.924,-0.635
3.9280000000000004,-0.5900000000000001
3.932,-0.54
3.9360000000000004,-0.47000000000000003
3.94,-0.405
3.944,-0.34500000000000003
3.9480000000000004,-0.29500000000000004
3.952,-0.25
3.9560000000000004,-0.195
3.96,-0.13
3.964,-0.06
3.9680000000000004,-0.005000000000000001
3.972,0.03
3.9760000000000004,0.05500000000000001
3.98,0.085
3.984,0.07666666666666687
3.988,0.06
3.992,0.06
3.9960000000000004,0.06
4.0,0.05
4.004,0.04000000000000001
4.008,0.03
4.012,0.020000000000000004
4.016,0.005000000000000001
4.0200000000000005,0.0
4.024,0.005000000000000001
4.0280000000000005,0.015
4.032,0.020000000000000004
4.0360000000000005,0.010000000000000002
4.04,0.0
4.044,0.0
4.048,0.0
4.052,0.0
4.056,0.0
4.0600000000000005,0.0
4.064,0.0
4.0680000000000005,0.0
4.072,0.0
4.0760000000000005,0.0
4.08,0.0
4.084,0.010000000000000002
4.088,0.010000000000000002
4.092,0.010000000000000002
4.096,0.010000000000000002
4.1,0.0
4.104,0.0
4.1080000000000005,0.0
4.112,0.0
4.1160000000000005,0.0
4.12,0.010000000000000002
4.124,0.010000000000000002
4.128,0.010000000000000002
4.132,0.010000000000000002
4.136,0.0
4.14,0.0
4.144,0.0
4.148000000000001,0.0
4.152,-0.005000000000000001
4.156000000000001,-0.010000000000000002
4.16,-0.015
4.164,-0.03
4.168,-0.034999999999999996
4.172,-0.04000000000000001
4.176,-0.045000000000000005
4.18,-0.05
4.184,-0.06
4.188000000000001,-0.06999999999999999
4.192,-0.06999999999999999
4.196000000000001,-0.08000000000000002
4.2,-0.09000000000000001
4.204,-0.1
4.208,-0.11000000000000001
4.212,-0.12
4.216,-0.13
4.22,-0.13999999999999999
4.224,-0.15000000000000002
4.228,-0.165
4.232,-0.18000000000000002
4.236000000000001,-0.18000000000000002
4.24,-0.19
4.244,-0.19
4.248,-0.2
4.252,-0.21000000000000002
4.256,-0.22000000000000003
4.26,-0.22999999999999998
4.264,-0.22999999999999998
4.268,-0.24
4.272,-0.24500000000000002
4.276000000000001,-0.25
4.28,-0.25
4.284,-0.25
4.288,-0.25
4.292,-0.25
4.296,-0.25
4.3,-0.25
4.304,-0.26
4.308,-0.26
4.312,-0.26
4.316000000000001,-0.26
4.32,-0.27
4.324,-0.27
4.328,-0.27
4.332,-0.27
4.336,-0.27
4.34,-0.26
4.344,-0.26
4.348,-0.26
4.352,-0.26
4.356000000000001,-0.26
4.36,-0.26
4.364,-0.25
4.368,-0.25
4.372,-0.25
4.376,-0.24
4.38,-0.24
4.3839999999999995,-0.24
4.388,-0.24
4.392,-0.22999999999999998
4.396,-0.22000000000000003
4.4,-0.22000000000000003
4.404,-0.21000000000000002
4.408,-0.21000000000000002
4.412,-0.2
4.416,-0.19
4.42,-0.18000000000000002
4.4239999999999995,-0.18000000000000002
4.428,-0.165
4.432,-0.15000000000000002
4.436,-0.13999999999999999
4.44,-0.13
4.444,-0.11499999999999999
4.448,-0.11000000000000001
4.452,-0.10500000000000001
4.456,-0.09000000000000001
4.46,-0.09000000000000001
4.4639999999999995,-0.08000000000000002
4.468,-0.06999999999999999
4.472,-0.06
4.476,-0.06
4.48,-0.05
4.484,-0.05
4.488,-0.05
4.492,-0.04000000000000001
4.496,-0.020000000000000004
4.5,-0.020000000000000004
4.504,-0.010000000000000002
4.508,0.0
4.512,0.0
4.516,0.0
4.5200000000000005,0.0
4.524,0.0
4.5280000000000005,0.0
4.532,0.0
4.5360000000000005,0.0
4.54,0.0
4.544,0.0
4.548,0.0
4.552,0.0
4.556,0.0
4.5600000000000005,0.0
4.564,0.0
4.5680000000000005,0.0
4.572,0.0
4.5760000000000005,0.0
4.58,0.0
4.584,0.0
4.588,0.0
4.592,0.0
4.596,0.0
4.6000000000000005,0.0
4.604,0.0
4.6080000000000005,0.0
4.612,0.0
4.6160000000000005,0.0
4.62,0.0
4.624,0.0
4.628,0.0
4.632,-0.010000000000000002
4.636,-0.010000000000000002
4.64,0.0
4.644,0.0
4.648000000000001,0.0
4.652,0.0
4.656000000000001,0.0
4.66,0.0
4.664,0.0
4.668,0.0
4.672,0.0
4.676,0.0
4.68,0.0
4.684,0.0
4.688000000000001,-0.010000000000000002
4.692,-0.010000000000000002
4.696000000000001,-0.010000000000000002
4.7,-0.005000000000000001
4.704,0.0
4.708,0.0
4.712,0.0
4.716,0.0
4.72,0.0
4.724,-0.010000000000000002
4.728000000000001,0.0
4.732,0.0
4.736000000000001,0.0
4.74,0.0
4.744,0.0
4.748,0.0
4.752,0.0
4.756,0.0
4.76,0.0
4.764,0.0
4.768,0.0
4.772,-0.010000000000000002
4.776000000000001,-0.010000000000000002
4.78,-0.010000000000000002
4.784,-0.010000000000000002
4.788,0.0
4.792,0.0
4.796,0.0
4.8,0.0
4.804,0.0
4.808,0.0
4.812,0.0
4.816000000000001,0.0
4.82,0.0
4.824,0.0
4.828,0.0
4.832,0.0
4.836,0.0
4.84,0.0
4.844,0.0
4.848,0.0
4.852,0.0
4.856000000000001,0.0
4.86,0.0
4.864,0.0
4.868,-0.010000000000000002
4.872,-0.010000000000000002
4.876,-0.010000000000000002
4.88,-0.010000000000000002
4.8839999999999995,-0.010000000000000002
4.888,-0.010000000000000002
4.892,-0.010000000000000002
4.896,-0.010000000000000002
4.9,-0.010000000000000002
4.904,-0.010000000000000002
4.908,-0.010000000000000002
4.912,-0.010000000000000002
4.916,-0.010000000000000002
4.92,-0.010000000000000002
4.9239999999999995,-0.010000000000000002
4.928,-0.010000000000000002
4.932,-0.010000000000000002
4.936,-0.010000000000000002
4.94,-0.010000000000000002
4.944,-0.010000000000000002
4.948,-0.010000000000000002
4.952,-0.010000000000000002
4.956,-0.010000000000000002
4.96,-0.020000000000000004
4.9639999999999995,-0.020000000000000004
4.968,-0.03
4.972,-0.04000000000000001
4.976,-0.04000000000000001
4.98,-0.05
4.984,-0.06
4.988,-0.06999999999999999
4.992,-0.07500000000000001
4.996,-0.08000000000000002
5.0,-0.085
5.004,-0.09000000000000001
5.008,-0.1
5.012,-0.1
5.016,-0.11000000000000001
5.0200000000000005,-0.11000000000000001
5.024,-0.11000000000000001
5.0280000000000005,-0.11000000000000001
5.032,-0.12
5.0360000000000005,-0.12
5.04,-0.12
5.044,-0.12
5.048,-0.12
5.052,-0.12
5.056,-0.11000000000000001
5.0600000000000005,-0.11000000000000001
5.064,-0.11000000000000001
5.0680000000000005,-0.11000000000000001
5.072,-0.1
5.0760000000000005,-0.1
5.08,-0.1
5.084,-0.09000000000000001
5.088,-0.08000000000000002
5.092,-0.08000000000000002
5.096,-0.06999999999999999
5.1000000000000005,-0.06999999999999999
5.104,-0.06
5.1080000000000005,-0.05
5.112,-0.04000000000000001
5.1160000000000005,-0.03
5.12,-0.020000000000000004
5.124,-0.020000000000000004
5.127999999999999,-0.010000000000000002
5.132000000000001,-0.010000000000000002
5.136,-0.010000000000000002
5.14,-0.010000000000000002
5.144,-0.010000000000000002
5.148,-0.010000000000000002
5.152,-0.010000000000000002
5.156000000000001,-0.010000000000000002
5.16,-0.010000000000000002
5.164,-0.010000000000000002
5.167999999999999,-0.010000000000000002
5.172000000000001,-0.010000000000000002
5.176,-0.010000000000000002
5.18,-0.010000000000000002
5.184,-0.010000000000000002
5.188,-0.010000000000000002
5.192,-0.010000000000000002
5.196000000000001,-0.010000000000000002
5.2,-0.010000000000000002
5.204,-0.010000000000000002
5.207999999999999,-0.010000000000000002
5.212000000000001,-0.010000000000000002
5.216,-0.010000000000000002
5.22,-0.010000000000000002
5.224,-0.010000000000000002
5.228,-0.010000000000000002
5.232,-0.010000000000000002
5.236000000000001,-0.010000000000000002
5.24,-0.010000000000000002
5.244,-0.010000000000000002
5.247999999999999,-0.010000000000000002
5.252000000000001,-0.010000000000000002
5.256,-0.010000000000000002
5.26,-0.010000000000000002
5.264,0.0
5.268,0.0
5.272,0.0
5.276000000000001,0.0
5.28,-0.010000000000000002
5.284,-0.010000000000000002
5.287999999999999,-0.010000000000000002
5.292000000000001,0.0
5.296,0.010000000000000002
5.3,0.020000000000000004
5.304,0.010000000000000002
5.308,-0.010000000000000002
5.312,-0.04000000000000001
5.316000000000001,-0.09000000000000001
5.32,-0.15500000000000003
5.324,-0.215
5.327999999999999,-0.265
5.332000000000001,-0.30000000000000004
5.336,-0.34500000000000003
5.34,-0.405
5.344,-0.47000000000000003
5.348,-0.52
5.352,-0.5599999999999999
5.356000000000001,-0.605
5.36,-0.65
5.364,-0.71
5.367999999999999,-0.77
5.372000000000001,-0.8150000000000001
5.376,-0.86
5.38,-0.8839999999999999
5.3839999999999995,-0.8814285714285717
5.388,-0.8419999999999999
5.392,-0.78
5.396,-0.735
5.4,-0.6900000000000001
5.404,-0.625
5.4079999999999995,-0.535
5.412000000000001,-0.4819999999999999
5.416,-0.4480000000000002
5.42,-0.39
5.4239999999999995,-0.33
5.428,-0.26
5.432,-0.195
5.436,-0.13
5.44,-0.08000000000000002
5.444,-0.034999999999999996
5.4479999999999995,0.015
5.452000000000001,0.06800000000000012
5.456,0.07500000000000001
5.46,0.06
5.4639999999999995,0.06
5.468,0.05500000000000001
5.472,0.05
5.476,0.04000000000000001
5.48,0.020000000000000004
5.484,0.020000000000000004
5.4879999999999995,0.010000000000000002
5.492000000000001,0.010000000000000002
5.496,0.0
5.5,0.0
5.504,0.0
5.508,0.0
5.5120000000000005,0.0
5.516,-0.010000000000000002
5.5200000000000005,-0.010000000000000002
5.524,0.0
5.528,0.0
5.532000000000001,0.0
5.5360000000000005,0.0
5.54,0.0
5.544,0.0
5.548,0.0
5.5520000000000005,0.0
5.556,0.0
5.5600000000000005,0.0
5.564,0.0
5.568,0.0
5.572000000000001,0.0
5.5760000000000005,0.0
5.58,0.0
5.584,0.0
5.588,0.0
5.5920000000000005,0.0
5.596,0.0
5.6000000000000005,0.0
5.604,0.0
5.608,0.0
5.612000000000001,0.0
5.6160000000000005,-0.010000000000000002
5.62,-0.010000000000000002
5.624,0.0
5.627999999999999,-0.010000000000000002
5.632000000000001,-0.010000000000000002
5.636,-0.010000000000000002
5.64,-0.015
5.644,-0.020000000000000004
5.648,-0.025
5.652,-0.04000000000000001
5.656000000000001,-0.05
5.66,-0.06
5.664,-0.06999999999999999
5.667999999999999,-0.06999999999999999
5.672000000000001,-0.08000000000000002
5.676,-0.09000000000000001
5.68,-0.1
5.684,-0.1
5.688,-0.11000000000000001
5.692,-0.12
5.696000000000001,-0.13
5.7,-0.13
5.704,-0.13
5.707999999999999,-0.15000000000000002
5.712000000000001,-0.18000000000000002
5.716,-0.18000000000000002
5.72,-0.18500000000000003
5.724,-0.19
5.728,-0.195
5.732,-0.21000000000000002
5.736000000000001,-0.21000000000000002
5.74,-0.22000000000000003
5.744,-0.22999999999999998
5.747999999999999,-0.22999999999999998
5.752000000000001,-0.24
5.756,-0.24
5.76,-0.24
5.764,-0.24
5.768,-0.25
5.772,-0.25
5.776000000000001,-0.26
5.78,-0.26
5.784,-0.26
5.787999999999999,-0.26
5.792000000000001,-0.26
5.796,-0.26
5.8,-0.26
5.804,-0.26
5.808,-0.26
5.812,-0.26
5.816000000000001,-0.26
5.82,-0.26
5.824,-0.26
5.827999999999999,-0.25
5.832000000000001,-0.25
5.836,-0.25
5.84,-0.25
5.844,-0.24
5.848,-0.24
5.852,-0.22999999999999998
5.856000000000001,-0.22999999999999998
5.86,-0.22999999999999998
5.864,-0.22999999999999998
5.867999999999999,-0.22999999999999998
5.872000000000001,-0.22999999999999998
5.876,-0.225
5.88,-0.22000000000000003
5.8839999999999995,-0.21000000000000002
5.888,-0.19
5.892,-0.18000000000000002
5.896,-0.17
5.9,-0.17
5.904,-0.16000000000000003
5.9079999999999995,-0.15000000000000002
5.912000000000001,-0.135
5.916,-0.12
5.92,-0.11000000000000001
5.9239999999999995,-0.1
5.928,-0.1
5.932,-0.095
5.936,-0.09000000000000001
5.94,-0.08000000000000002
5.944,-0.07500000000000001
5.9479999999999995,-0.06
5.952000000000001,-0.034999999999999996
5.956,-0.020000000000000004
5.96,-0.025
5.9639999999999995,-0.03
5.968,-0.020000000000000004
5.972,-0.020000000000000004
5.976,-0.010000000000000002
5.98,0.0
5.984,0.0
5.9879999999999995,0.0
5.992000000000001,0.010000000000000002
5.996,0.010000000000000002
6.0,0.010000000000000002
6.004,0.010000000000000002
6.008,0.010000000000000002
6.0120000000000005,0.010000000000000002
6.016,0.010000000000000002
6.0200000000000005,0.010000000000000002
6.024,0.010000000000000002
6.028,0.010000000000000002
6.032000000000001,0.010000000000000002
6.0360000000000005,0.010000000000000002
6.04,0.010000000000000002
6.044,0.010000000000000002
6.048,0.025
6.0520000000000005,0.010000000000000002
6.056,0.010000000000000002
6.0600000000000005,0.010000000000000002
6.064,0.010000000000000002
6.068,0.010000000000000002
6.072000000000001,0.010000000000000002
6.0760000000000005,0.010000000000000002
6.08,0.010000000000000002
6.084,0.010000000000000002
6.088,0.020000000000000004
6.0920000000000005,0.020000000000000004
6.096,0.020000000000000004
6.1000000000000005,0.010000000000000002
6.104,0.010000000000000002
6.108,0.010000000000000002
6.112000000000001,0.010000000000000002
6.1160000000000005,0.010000000000000002
6.12,0.010000000000000002
6.124,0.010000000000000002
6.128,0.010000000000000002
6.132000000000001,0.010000000000000002
6.136,0.010000000000000002
6.140000000000001,0.010000000000000002
6.144,0.010000000000000002
6.148,0.010000000000000002
6.152000000000001,0.010000000000000002
6.156000000000001,0.010000000000000002
6.16,0.010000000000000002
6.164,0.010000000000000002
6.167999999999999,0.010000000000000002
6.172000000000001,0.010000000000000002
6.176,0.010000000000000002
6.18,0.010000000000000002
6.184,0.010000000000000002
6.188,0.010000000000000002
6.192,0.010000000000000002
6.196000000000001,0.010000000000000002
6.2,0.010000000000000002
6.204,0.010000000000000002
6.207999999999999,0.010000000000000002
6.212000000000001,0.010000000000000002
6.216,0.010000000000000002
6.22,0.010000000000000002
6.224,0.010000000000000002
6.228,0.010000000000000002
6.232,0.010000000000000002
6.236000000000001,0.010000000000000002
6.24,0.010000000000000002
6.244,0.010000000000000002
6.247999999999999,0.010000000000000002
6.252000000000001,0.010000000000000002
6.256,0.010000000000000002
6.26,0.010000000000000002
6.264,0.010000000000000002
6.268,0.010000000000000002
6.272,0.010000000000000002
6.276000000000001,0.010000000000000002
6.28,0.010000000000000002
6.284,0.010000000000000002
6.287999999999999,0.010000000000000002
6.292000000000001,0.010000000000000002
6.296,0.010000000000000002
6.3,0.0
6.304,0.0
6.308,0.010000000000000002
6.312,0.010000000000000002
6.316000000000001,0.010000000000000002
6.32,0.010000000000000002
6.324,0.010000000000000002
6.327999999999999,0.010000000000000002
6.332000000000001,0.010000000000000002
6.336,0.010000000000000002
6.34,0.010000000000000002
6.344,0.010000000000000002
6.348,0.010000000000000002
6.352,0.010000000000000002
6.356000000000001,0.010000000000000002
6.36,0.010000000000000002
6.364,0.010000000000000002
6.367999999999999,0.005000000000000001
6.372000000000001,0.0
6.376,0.005000000000000001
6.38,0.010000000000000002
6.384,0.010000000000000002
6.388,0.010000000000000002
6.392,0.010000000000000002
6.396000000000001,0.010000000000000002
6.4,0.010000000000000002
6.404,0.010000000000000002
6.4079999999999995,0.010000000000000002
6.412000000000001,0.010000000000000002
6.416,0.010000000000000002
6.42,0.020000000000000004
6.4239999999999995,0.010000000000000002
6.428,0.010000000000000002
6.432,0.010000000000000002
6.436,0.0
6.44,-0.010000000000000002
6.444,-0.010000000000000002
6.4479999999999995,-0.020000000000000004
6.452000000000001,-0.03
6.456,-0.03
6.46,-0.04000000000000001
6.4639999999999995,-0.04000000000000001
6.468,-0.05
6.472,-0.06
6.476,-0.06
6.48,-0.06999999999999999
6.484,-0.08000000000000002
6.4879999999999995,-0.08000000000000002
6.492000000000001,-0.09000000000000001
6.496,-0.1
6.5,-0.1
6.504,-0.1
6.508,-0.1
6.5120000000000005,-0.1
6.516,-0.11000000000000001
6.5200000000000005,-0.11000000000000001
6.524,-0.11000000000000001
6.528,-0.10500000000000001
6.532000000000001,-0.1
6.5360000000000005,-0.095
6.54,-0.09000000000000001
6.544,-0.08000000000000002
6.548,-0.08000000000000002
6.5520000000000005,-0.06999999999999999
6.556,-0.06999999999999999
6.5600000000000005,-0.06999999999999999
6.564,-0.065
6.568,-0.06
6.572000000000001,-0.05500000000000001
6.5760000000000005,-0.04000000000000001
6.58,-0.03
6.584,-0.020000000000000004
6.588,-0.010000000000000002
6.5920000000000005,-0.010000000000000002
6.596,0.0
6.6000000000000005,0.0
6.604,0.0
6.608,0.0
6.612000000000001,0.010000000000000002
6.6160000000000005,0.010000000000000002
6.62,0.010000000000000002
6.624,0.010000000000000002
6.628,0.010000000000000002
6.632000000000001,0.010000000000000002
6.636,0.010000000000000002
6.640000000000001,0.010000000000000002
6.644,0.010000000000000002
6.648,0.010000000000000002
6.652000000000001,0.010000000000000002
6.656000000000001,0.010000000000000002
6.66,0.010000000000000002
6.664,0.010000000000000002
6.667999999999999,0.010000000000000002
6.672000000000001,0.010000000000000002
6.676,0.010000000000000002
6.68,0.010000000000000002
6.684,0.010000000000000002
6.688,0.010000000000000002
6.692,0.010000000000000002
6.696000000000001,0.010000000000000002
6.7,0.010000000000000002
6.704,0.010000000000000002
6.707999999999999,0.010000000000000002
6.712000000000001,0.010000000000000002
6.716,0.010000000000000002
6.72,0.010000000000000002
6.724,0.010000000000000002
6.728,0.010000000000000002
6.732,0.010000000000000002
6.736000000000001,0.0
6.74,0.010000000000000002
6.744,0.010000000000000002
6.747999999999999,0.010000000000000002
6.752000000000001,0.010000000000000002
6.756,0.010000000000000002
6.76,0.010000000000000002
6.764,0.015
6.768,0.020000000000000004
6.772,0.025
6.776000000000001,0.034999999999999996
6.78,0.04000000000000001
6.784,0.025
6.787999999999999,-0.010000000000000002
6.792000000000001,-0.065
6.796,-0.125
6.8,-0.17500000000000002
6.804,-0.22000000000000003
6.808,-0.27999999999999997
6.812,-0.335
6.816000000000001,-0.385
6.82,-0.435
6.824,-0.47500000000000003
6.827999999999999,-0.53
6.832000000000001,-0.5900000000000001
6.836,-0.65
6.84,-0.7000000000000001
6.844,-0.735
6.848,-0.775
6.852,-0.8
6.856000000000001,-0.8400000000000001
6.86,-0.845
6.864,-0.8
6.867999999999999,-0.7650000000000001
6.872000000000001,-0.7050000000000001
6.876,-0.625
6.88,-0.572
6.884,-0.5316666666666668
6.888,-0.47500000000000003
6.892,-0.42500000000000004
6.896000000000001,-0.365
6.9,-0.29500000000000004
6.904,-0.225
6.9079999999999995,-0.17500000000000002
6.912000000000001,-0.12
6.916,-0.07142857142857167
6.92,-0.01857142857142833
6.9239999999999995,0.04000000000000001
6.928,0.06999999999999999
6.932,0.09000000000000001
6.936,0.1
6.94,0.085
6.944,0.08000000000000002
6.9479999999999995,0.07500000000000001
6.952000000000001,0.06
6.956,0.05
6.96,0.04000000000000001
6.9639999999999995,0.03
6.968,0.03
6.972,0.03
6.976,0.020000000000000004
6.98,0.020000000000000004
6.984,0.010000000000000002
6.9879999999999995,0.010000000000000002
6.992000000000001,0.020000000000000004
6.996,0.020000000000000004
7.0,0.020000000000000004
7.004,0.03
7.008,0.03
7.0120000000000005,0.03
7.016,0.03
7.0200000000000005,0.03
7.024,0.020000000000000004
7.028,0.020000000000000004
7.032000000000001,0.020000000000000004
7.0360000000000005,0.020000000000000004
7.04,0.020000000000000004
7.044,0.020000000000000004
7.048,0.020000000000000004
7.0520000000000005,0.020000000000000004
7.056,0.020000000000000004
7.0600000000000005,0.020000000000000004
7.064,0.020000000000000004
7.068,0.020000000000000004
7.072000000000001,0.010000000000000002
7.0760000000000005,0.020000000000000004
7.08,0.020000000000000004
7.084,0.020000000000000004
7.088,0.020000000000000004
7.0920000000000005,0.020000000000000004
7.096,0.020000000000000004
7.1000000000000005,0.020000000000000004
7.104,0.020000000000000004
7.108,0.005000000000000001
7.112000000000001,0.0
7.1160000000000005,-0.005000000000000001
7.12,-0.010000000000000002
7.124,-0.020000000000000004
7.128,-0.03
7.132000000000001,-0.03
7.136,-0.04000000000000001
7.140000000000001,-0.05
7.144,-0.05
7.148,-0.06
7.152000000000001,-0.06999999999999999
7.156000000000001,-0.08000000000000002
7.16,-0.08000000000000002
7.164,-0.09000000000000001
7.167999999999999,-0.1
7.172000000000001,-0.11000000000000001
7.176,-0.12
7.18,-0.135
7.184,-0.15000000000000002
7.188,-0.16000000000000003
7.192,-0.17
7.196000000000001,-0.18000000000000002
7.2,-0.18000000000000002
7.204,-0.19
7.207999999999999,-0.2
7.212000000000001,-0.2
7.216,-0.21000000000000002
7.22,-0.21000000000000002
7.224,-0.22000000000000003
7.228,-0.22999999999999998
7.232,-0.22999999999999998
7.236000000000001,-0.22999999999999998
7.24,-0.22999999999999998
7.244,-0.24
7.247999999999999,-0.24
7.252000000000001,-0.25
7.256,-0.25
7.26,-0.25
7.264,-0.25
7.268,-0.25
7.272,-0.25
7.276000000000001,-0.25
7.28,-0.25
7.284,-0.25
7.287999999999999,-0.25
7.292000000000001,-0.25
7.296,-0.25
7.3,-0.25
7.304,-0.24
7.308,-0.24
7.312,-0.24
7.316000000000001,-0.24
7.32,-0.22999999999999998
7.324,-0.22999999999999998
7.327999999999999,-0.22999999999999998
7.332000000000001,-0.22999999999999998
7.336,-0.22000000000000003
7.34,-0.22000000000000003
7.344,-0.22000000000000003
7.348,-0.205
7.352,-0.2
7.356000000000001,-0.19
7.36,-0.18500000000000003
7.364,-0.18000000000000002
7.367999999999999,-0.18000000000000002
7.372000000000001,-0.17
7.376,-0.16000000000000003
7.38,-0.15000000000000002
7.384,-0.13999999999999999
7.388,-0.13
7.392,-0.12
7.396000000000001,-0.10500000000000001
7.4,-0.09000000000000001
7.404,-0.08000000000000002
7.4079999999999995,-0.06999999999999999
7.412000000000001,-0.06999999999999999
7.416,-0.06
7.42,-0.06
7.4239999999999995,-0.05
7.428,-0.04000000000000001
7.432,-0.03
7.436,-0.020000000000000004
7.44,-0.010000000000000002
7.444,-0.010000000000000002
7.4479999999999995,-0.010000000000000002
7.452000000000001,0.0
7.456,0.010000000000000002
7.46,0.010000000000000002
7.4639999999999995,0.020000000000000004
7.468,0.020000000000000004
7.472,0.020000000000000004
7.476,0.020000000000000004
7.48,0.020000000000000004
7.484,0.020000000000000004
7.4879999999999995,0.020000000000000004
7.492000000000001,0.020000000000000004
7.496,0.03
7.5,0.03
7.504,0.03
7.508,0.020000000000000004
7.5120000000000005,0.020000000000000004
7.516,0.020000000000000004
7.5200000000000005,0.020000000000000004
7.524,0.020000000000000004
7.528,0.020000000000000004
7.532000000000001,0.020000000000000004
7.5360000000000005,0.020000000000000004
7.54,0.020000000000000004
7.544,0.020000000000000004
7.548,0.020000000000000004
7.5520000000000005,0.020000000000000004
7.556,0.020000000000000004
7.5600000000000005,0.020000000000000004
7.564,0.020000000000000004
7.568,0.020000000000000004
7.572000000000001,0.010000000000000002
7.5760000000000005,0.010000000000000002
7.58,0.010000000000000002
7.584,0.010000000000000002
7.588,0.010000000000000002
7.5920000000000005,0.010000000000000002
7.596,0.010000000000000002
7.6000000000000005,0.010000000000000002
7.604,0.010000000000000002
7.608,0.010000000000000002
7.612000000000001,0.0
7.6160000000000005,0.0
7.62,0.0
7.624,0.0
7.628,0.0
7.632000000000001,0.010000000000000002
7.636,0.0
7.640000000000001,0.0
7.644,0.0
7.648,0.010000000000000002
7.652000000000001,0.010000000000000002
7.656000000000001,0.010000000000000002
7.66,0.010000000000000002
7.664,0.010000000000000002
7.667999999999999,0.010000000000000002
7.672000000000001,0.010000000000000002
7.676,0.010000000000000002
7.68,0.010000000000000002
7.684,0.010000000000000002
7.688,0.010000000000000002
7.692000000000001,0.020000000000000004
7.696000000000001,0.020000000000000004
7.7,0.010000000000000002
7.704,0.010000000000000002
7.707999999999999,0.010000000000000002
7.712000000000001,0.010000000000000002
7.716,0.010000000000000002
7.72,0.010000000000000002
7.724,0.010000000000000002
7.728,0.010000000000000002
7.732,0.010000000000000002
7.736000000000001,0.010000000000000002
7.74,0.010000000000000002
7.744,0.010000000000000002
7.747999999999999,0.010000000000000002
7.752000000000001,0.010000000000000002
7.756,0.010000000000000002
7.76,0.010000000000000002
7.764,0.010000000000000002
7.768,0.010000000000000002
7.772,0.010000000000000002
7.776000000000001,0.0
7.78,0.0
7.784,0.010000000000000002
7.787999999999999,0.010000000000000002
7.792000000000001,0.010000000000000002
7.796,0.010000000000000002
7.8,0.0
7.804,0.0
7.808,0.0
7.812,0.0
7.816000000000001,0.0
7.82,0.0
7.824,0.0
7.827999999999999,0.0
7.832000000000001,0.0
7.836,0.0
7.84,0.0
7.844,0.0
7.848,0.0
7.852,0.0
7.856000000000001,0.0
7.86,0.0
7.864,0.0
7.867999999999999,0.0
7.872000000000001,0.0
7.876,0.0
7.88,0.0
7.884,0.0
7.888,0.010000000000000002
7.892,0.010000000000000002
7.896000000000001,0.010000000000000002
7.9,0.0
7.904,0.0
7.9079999999999995,0.0
7.912000000000001,0.0
7.916,-0.010000000000000002
7.92,-0.020000000000000004
7.924,-0.03
7.928,-0.03
7.932,-0.04000000000000001
7.936000000000001,-0.05
7.94,-0.05
7.944,-0.06
7.9479999999999995,-0.06
7.952000000000001,-0.06999999999999999
7.956,-0.08000000000000002
7.96,-0.09000000000000001
7.9639999999999995,-0.1
7.968,-0.1
7.972,-0.1
7.976,-0.1
7.98,-0.11000000000000001
7.984,-0.11000000000000001
7.9879999999999995,-0.11000000000000001
7.992000000000001,-0.11000000000000001
7.996,-0.11000000000000001
8.0,-0.11000000000000001
8.004,-0.11000000000000001
8.008,-0.11000000000000001
8.012,-0.1
8.016,-0.1
8.02,-0.1
8.024,-0.1
8.028,-0.09000000000000001
8.032,-0.085
8.036,-0.08000000000000002
8.040000000000001,-0.06999999999999999
8.044,-0.06999999999999999
8.048,-0.06
8.052000000000001,-0.06
8.056000000000001,-0.06
8.06,-0.05500000000000001
8.064,-0.05
8.068,-0.04000000000000001
8.072000000000001,-0.020000000000000004
8.076,-0.020000000000000004
8.08,-0.020000000000000004
8.084,-0.015
8.088,-0.010000000000000002
8.092,-0.010000000000000002
8.096,-0.010000000000000002
8.1,0.0
8.104,0.0
8.108,0.0
8.112,0.0
8.116,-0.010000000000000002
8.120000000000001,-0.010000000000000002
8.124,0.0
8.128,0.0
8.132000000000001,0.010000000000000002
8.136000000000001,0.0
8.14,-0.010000000000000002
8.144,0.0
8.148,0.0
8.152000000000001,0.0
8.156,0.0
8.16,-0.010000000000000002
8.164,-0.010000000000000002
8.168,-0.010000000000000002
8.172,-0.010000000000000002
8.176,-0.010000000000000002
8.18,-0.010000000000000002
8.184,0.0
8.187999999999999,0.0
8.192,0.0
8.196,0.0
8.2,0.0
8.204,0.0
8.208,0.0
8.212,0.0
8.216000000000001,0.0
8.22,0.0
8.224,0.0
8.228,0.0
8.232000000000001,0.0
8.236,0.0
8.24,0.0
8.244,0.020000000000000004
8.248,0.03
8.252,0.03
8.256,0.03
8.26,0.005000000000000001
8.264,-0.05
8.267999999999999,-0.10500000000000001
8.272,-0.15500000000000003
8.276,-0.2
8.28,-0.255
8.284,-0.31000000000000005
8.288,-0.36000000000000004
8.292,-0.4
8.296000000000001,-0.435
8.3,-0.49000000000000005
8.304,-0.555
8.308,-0.61
8.312000000000001,-0.65
8.316,-0.685
8.32,-0.735
8.324,-0.795
8.328,-0.845
8.332,-0.885
8.336,-0.8900000000000001
8.34,-0.8500000000000001
8.344,-0.795
8.347999999999999,-0.7250000000000001
8.352,-0.66
8.356,-0.6150000000000001
8.36,-0.58
8.364,-0.51
8.368,-0.435
8.372,-0.37000000000000005
8.376000000000001,-0.30000000000000004
8.38,-0.25
8.384,-0.205
8.388,-0.145
8.392000000000001,-0.07500000000000001
8.396,-0.015
8.4,0.010000000000000002
8.404,0.034999999999999996
8.408,0.06
8.412,0.05
8.416,0.04000000000000001
8.42,0.03
8.424,0.025
8.427999999999999,0.03800000000000012
8.432,0.015
8.436,0.010000000000000002
8.44,0.0
8.443999999999999,0.0
8.448,0.0
8.452,0.0
8.456,0.0
8.46,0.0
8.464,0.0
8.468,0.0
8.472000000000001,0.0
8.476,0.0
8.48,0.0
8.484,0.0
8.488,0.0
8.492,0.0
8.496,0.0
8.5,0.0
8.504,0.0
8.508,0.0
8.512,0.0
8.516,0.0
8.52,0.0
8.524,0.0
8.528,0.0
8.532,0.0
8.536,0.0
8.540000000000001,0.0
8.544,0.0
8.548,0.0
8.552000000000001,0.0
8.556000000000001,0.0
8.56,0.0
8.564,0.0
8.568,0.0
8.572000000000001,0.010000000000000002
8.576,0.0
8.58,0.0
8.584,-0.010000000000000002
8.588,-0.010000000000000002
8.592,-0.020000000000000004
8.596,-0.03
8.6,-0.04000000000000001
8.604,-0.05
8.608,-0.06
8.612,-0.06999999999999999
8.616,-0.06999999999999999
8.620000000000001,-0.08000000000000002
8.624,-0.08000000000000002
8.628,-0.08000000000000002
8.632000000000001,-0.085
8.636000000000001,-0.1
8.64,-0.11000000000000001
8.644,-0.12
8.648,-0.13
8.652000000000001,-0.13999999999999999
8.656,-0.15000000000000002
8.66,-0.16000000000000003
8.664,-0.17
8.668,-0.18000000000000002
8.672,-0.19
8.676,-0.2
8.68,-0.21000000000000002
8.684,-0.225
8.688,-0.22999999999999998
8.692,-0.23500000000000001
8.696,-0.24
8.700000000000001,-0.24
8.704,-0.25
8.708,-0.25
8.712000000000002,-0.25
8.716000000000001,-0.25
8.72,-0.25
8.724,-0.26
8.728,-0.27
8.732000000000001,-0.26
8.736,-0.26
8.74,-0.26
8.744,-0.26
8.748,-0.26
8.752,-0.26
8.756,-0.26
8.76,-0.265
8.764,-0.27
8.767999999999999,-0.26
8.772,-0.26
8.776,-0.26
8.78,-0.26
8.784,-0.26
8.788,-0.26
8.792,-0.26
8.796000000000001,-0.26
8.8,-0.26
8.804,-0.26
8.808,-0.255
8.812000000000001,-0.24
8.816,-0.24
8.82,-0.22999999999999998
8.824,-0.22999999999999998
8.828,-0.22999999999999998
8.832,-0.22000000000000003
8.836,-0.21000000000000002
8.84,-0.2
8.844,-0.19
8.847999999999999,-0.19
8.852,-0.18000000000000002
8.856,-0.17
8.86,-0.15500000000000003
8.864,-0.13999999999999999
8.868,-0.13
8.872,-0.12
8.876000000000001,-0.12
8.88,-0.11000000000000001
8.884,-0.1
8.888,-0.09000000000000001
8.892000000000001,-0.08000000000000002
8.896,-0.08000000000000002
8.9,-0.06999999999999999
8.904,-0.06999999999999999
8.908,-0.06
8.912,-0.05
8.916,-0.04000000000000001
8.92,-0.03
8.924,-0.020000000000000004
8.927999999999999,-0.010000000000000002
8.932,0.0
8.936,0.0
8.94,0.0
8.944,0.0
8.948,0.0
8.952,0.0
8.956000000000001,0.0
8.96,0.0
8.964,0.0
8.968,0.0
8.972000000000001,0.0
8.976,0.0
8.98,0.0
8.984,0.0
8.988,0.0
8.992,0.0
8.996,0.0
9.0,0.0
9.004,0.0
9.008,0.0
9.012,0.0
9.016,0.0
9.02,0.0
9.024,0.0
9.028,0.0
9.032,0.0
9.036,0.0
9.040000000000001,0.0
9.044,0.0
9.048,0.0
9.052000000000001,0.0
9.056000000000001,0.0
9.06,0.0
9.064,0.0
9.068,0.0
9.072000000000001,0.0
9.076,0.0
9.08,0.0
9.084,0.0
9.088,0.0
9.092,0.0
9.096,0.0
9.1,0.005000000000000001
9.104,0.010000000000000002
9.108,0.010000000000000002
9.112,0.010000000000000002
9.116,0.010000000000000002
9.120000000000001,0.0
9.124,0.0
9.128,0.0
9.132000000000001,0.0
9.136000000000001,0.0
9.14,0.0
9.144,0.0
9.148,0.0
9.152000000000001,0.0
9.156,0.0
9.16,0.0
9.164,0.0
9.168,0.0
9.172,0.0
9.176,0.0
9.18,0.0
9.184,0.0
9.188,0.010000000000000002
9.192,-0.010000000000000002
9.196,-0.010000000000000002
9.200000000000001,-0.010000000000000002
9.204,-0.010000000000000002
9.208,-0.010000000000000002
9.212000000000002,-0.010000000000000002
9.216000000000001,-0.010000000000000002
9.22,-0.010000000000000002
9.224,-0.010000000000000002
9.228,-0.010000000000000002
9.232000000000001,-0.010000000000000002
9.236,-0.010000000000000002
9.24,-0.010000000000000002
9.244,-0.010000000000000002
9.248,-0.005000000000000001
9.252,0.0
9.256,0.0
9.26,0.0
9.264,0.0
9.267999999999999,0.0
9.272,0.0
9.276,0.0
9.28,0.0
9.284,0.0
9.288,0.0
9.292,0.0
9.296000000000001,0.0
9.3,0.0
9.304,0.0
9.308,0.0
9.312000000000001,0.0
9.316,0.0
9.32,0.0
9.324,0.0
9.328,0.0
9.332,0.0
9.336,0.0
9.34,0.0
9.344,0.0
9.347999999999999,0.0
9.352,0.0
9.356,0.0
9.36,0.0
9.364,0.0
9.368,0.0
9.372,-0.010000000000000002
9.376000000000001,-0.010000000000000002
9.38,-0.010000000000000002
9.384,-0.010000000000000002
9.388,-0.010000000000000002
9.392000000000001,-0.020000000000000004
9.396,-0.03
9.4,-0.04000000000000001
9.404,-0.05
9.408,-0.06
9.412,-0.06
9.416,-0.07500000000000001
9.42,-0.08000000000000002
9.424,-0.08333333333333315
9.427999999999999,-0.08666666666666686
9.432,-0.09000000000000001
9.436,-0.1
9.44,-0.1
9.444,-0.1
9.448,-0.1
9.452,-0.11000000000000001
9.456000000000001,-0.11000000000000001
9.46,-0.12
9.464,-0.12
9.468,-0.12
9.472000000000001,-0.11000000000000001
9.476,-0.11000000000000001
9.48,-0.11000000000000001
9.484,-0.11000000000000001
9.488,-0.11000000000000001
9.492,-0.11000000000000001
9.496,-0.11000000000000001
9.5,-0.1
9.504,-0.1
9.508,-0.1
9.512,-0.09000000000000001
9.516,-0.06999999999999999
9.52,-0.06
9.524,-0.05500000000000001
9.528,-0.05
9.532,-0.04000000000000001
9.536,-0.04000000000000001
9.540000000000001,-0.03
9.544,-0.020000000000000004
9.548,-0.020000000000000004
9.552000000000001,-0.010000000000000002
9.556000000000001,-0.010000000000000002
9.56,-0.010000000000000002
9.564,-0.010000000000000002
9.568,-0.010000000000000002
9.572000000000001,-0.010000000000000002
9.576,-0.010000000000000002
9.58,-0.010000000000000002
9.584,-0.010000000000000002
9.588,-0.010000000000000002
9.592,-0.010000000000000002
9.596,-0.010000000000000002
9.6,-0.010000000000000002
9.604,-0.010000000000000002
9.608,-0.010000000000000002
9.612,-0.010000000000000002
9.616,-0.010000000000000002
9.620000000000001,0.0
9.624,0.0
9.628,0.0
9.632000000000001,0.0
9.636000000000001,0.0
9.64,0.0
9.644,0.0
9.648,0.0
9.652000000000001,0.0
9.656,0.0
9.66,0.0
9.664,0.0
9.668,0.0
9.672,0.0
9.676,0.010000000000000002
9.68,0.0
9.684,0.0
9.688,0.0
9.692,0.0
9.696,0.0
9.700000000000001,0.0
9.704,0.0
9.708,0.0
9.712000000000002,0.0
9.716000000000001,0.0
9.72,0.010000000000000002
9.724,0.020000000000000004
9.728,0.020000000000000004
9.732000000000001,0.04000000000000001
9.736,0.005000000000000001
9.74,-0.034999999999999996
9.744,-0.07500000000000001
9.748,-0.13
9.752,-0.18500000000000003
9.756,-0.23500000000000001
9.76,-0.305
9.764,-0.34
9.767999999999999,-0.375
9.772,-0.44000000000000006
9.776,-0.5
9.78,-0.5650000000000001
9.784,-0.6200000000000001
9.788,-0.66
9.792,-0.7000000000000001
9.796000000000001,-0.75
9.8,-0.8050000000000002
9.804,-0.8400000000000001
9.808,-0.86
9.812000000000001,-0.8860000000000003
9.816,-0.8300000000000001
9.82,-0.775
9.824,-0.71
9.828,-0.665
9.832,-0.6200000000000001
9.836,-0.555
9.84,-0.47500000000000003
9.844,-0.41
9.847999999999999,-0.365
9.852,-0.325
9.856,-0.27
9.86,-0.1875
9.864,-0.13999999999999999
9.868,-0.09600000000000024
9.872,-0.045000000000000005
9.876000000000001,0.0
9.88,0.05
9.884,0.085
9.888,0.06999999999999999
9.892000000000001,0.06
9.896,0.05
9.9,0.05
9.904,0.034999999999999996
9.908,0.03
9.912,0.025
9.916,0.010000000000000002
9.92,0.010000000000000002
9.924,0.010000000000000002
9.927999999999999,0.010000000000000002
9.932,0.010000000000000002
9.936,0.010000000000000002
9.94,0.010000000000000002
9.944,0.010000000000000002
9.948,0.0
9.952,0.0
9.956000000000001,0.0
9.96,0.020000000000000004
9.964,0.010000000000000002
9.968,0.0
9.972000000000001,0.0
9.976,0.0
9.98,0.0
9.984,0.0
9.988,0.0
9.992,0.010000000000000002
9.996,0.010000000000000002
10.0,0.010000000000000002
10.004,0.0
10.008,0.0
10.012,0.0
10.016,0.0
10.02,0.0
10.024,0.010000000000000002
10.028,0.010000000000000002
10.032,0.010000000000000002
10.036,0.010000000000000002
10.040000000000001,0.0
10.044,0.0
10.048,0.0
10.052000000000001,0.0
10.056000000000001,0.0
10.06,0.0
10.064,0.0
10.068,-0.010000000000000002
10.072000000000001,-0.010000000000000002
10.076,-0.025
10.08,-0.04000000000000001
10.084,-0.05500000000000001
10.088,-0.06
10.092,-0.06
10.096,-0.06
10.1,-0.06999999999999999
10.104,-0.08000000000000002
10.108,-0.09000000000000001
10.112,-0.09000000000000001
10.116,-0.1
10.120000000000001,-0.11000000000000001
10.124,-0.12
10.128,-0.13
10.132000000000001,-0.13999999999999999
10.136000000000001,-0.15000000000000002
10.14,-0.165
10.144,-0.18000000000000002
10.148,-0.18500000000000003
10.152000000000001,-0.19
10.156,-0.195
10.16,-0.2
10.164,-0.21000000000000002
10.168,-0.22000000000000003
10.172,-0.22999999999999998
10.176,-0.24
10.18,-0.24
10.184,-0.24
10.188,-0.24
10.192,-0.24
10.196,-0.24
10.200000000000001,-0.25
10.204,-0.25
10.208,-0.25
10.212000000000002,-0.25
10.216000000000001,-0.25
10.22,-0.25
10.224,-0.25
10.228,-0.25
10.232000000000001,-0.25
10.236,-0.25
10.24,-0.25
10.244000000000002,-0.25
10.248,-0.25
10.252,-0.25
10.255999999999998,-0.25
10.26,-0.25
10.264000000000001,-0.25
10.267999999999999,-0.25
10.272,-0.24
10.276,-0.24
10.28,-0.24
10.284,-0.24
10.288,-0.22999999999999998
10.292,-0.22999999999999998
10.296,-0.225
10.3,-0.21000000000000002
10.304,-0.21000000000000002
10.308,-0.21000000000000002
10.312000000000001,-0.2
10.315999999999999,-0.19
10.32,-0.18000000000000002
10.324000000000002,-0.17
10.328,-0.16000000000000003
10.332,-0.15000000000000002
10.335999999999999,-0.13999999999999999
10.34,-0.13999999999999999
10.344000000000001,-0.125
10.347999999999999,-0.11000000000000001
10.352,-0.1
10.356,-0.09000000000000001
10.36,-0.08000000000000002
10.364,-0.06999999999999999
10.368,-0.06999999999999999
10.372,-0.06999999999999999
10.376,-0.06
10.38,-0.05
10.384,-0.04000000000000001
10.388,-0.03
10.392000000000001,-0.020000000000000004
10.395999999999999,-0.020000000000000004
10.4,-0.010000000000000002
10.404000000000002,0.0
10.408,0.0
10.412,0.010000000000000002
10.415999999999999,0.010000000000000002
10.42,0.010000000000000002
10.424000000000001,0.010000000000000002
10.427999999999999,0.020000000000000004
10.432,0.020000000000000004
10.436,0.020000000000000004
10.44,0.020000000000000004
10.444,0.020000000000000004
10.448,0.020000000000000004
10.452,0.020000000000000004
10.456,0.020000000000000004
10.46,0.020000000000000004
10.464,0.020000000000000004
10.468,0.010000000000000002
10.472000000000001,0.010000000000000002
10.475999999999999,0.010000000000000002
10.48,0.010000000000000002
10.484000000000002,0.010000000000000002
10.488,0.010000000000000002
10.492,0.025
10.495999999999999,0.010000000000000002
10.5,0.010000000000000002
10.504000000000001,0.010000000000000002
10.508,0.010000000000000002
10.512,0.010000000000000002
10.516,0.020000000000000004
10.52,0.020000000000000004
10.524000000000001,0.020000000000000004
10.528,0.020000000000000004
10.532,0.020000000000000004
10.536,0.015
10.540000000000001,0.010000000000000002
10.544,0.015
10.548,0.020000000000000004
10.552000000000001,0.020000000000000004
10.556,0.020000000000000004
10.56,0.010000000000000002
10.564000000000002,0.010000000000000002
10.568,0.010000000000000002
10.572000000000001,0.010000000000000002
10.575999999999999,0.010000000000000002
10.58,0.020000000000000004
10.584000000000001,0.010000000000000002
10.588,0.010000000000000002
10.592,0.010000000000000002
10.596,0.010000000000000002
10.6,0.010000000000000002
10.604000000000001,0.010000000000000002
10.608,0.010000000000000002
10.612,0.020000000000000004
10.616,0.010000000000000002
10.620000000000001,0.010000000000000002
10.624,0.010000000000000002
10.628,0.010000000000000002
10.632000000000001,0.020000000000000004
10.636,0.020000000000000004
10.64,0.020000000000000004
10.644000000000002,0.020000000000000004
10.648,0.020000000000000004
10.652000000000001,0.020000000000000004
10.655999999999999,0.020000000000000004
10.66,0.020000000000000004
10.664000000000001,0.020000000000000004
10.668,0.020000000000000004
10.672,0.020000000000000004
10.676,0.020000000000000004
10.68,0.010000000000000002
10.684000000000001,0.010000000000000002
10.688,0.010000000000000002
10.692,0.010000000000000002
10.696,0.010000000000000002
10.700000000000001,0.010000000000000002
10.704,0.020000000000000004
10.708,0.020000000000000004
10.712000000000002,0.020000000000000004
10.716,0.020000000000000004
10.72,0.020000000000000004
10.724000000000002,0.020000000000000004
10.728,0.020000000000000004
10.732000000000001,0.020000000000000004
10.735999999999999,0.020000000000000004
10.74,0.020000000000000004
10.744000000000002,0.020000000000000004
10.748,0.020000000000000004
10.752,0.020000000000000004
10.755999999999998,0.020000000000000004
10.76,0.020000000000000004
10.764000000000001,0.020000000000000004
10.767999999999999,0.020000000000000004
10.772,0.020000000000000004
10.776,0.020000000000000004
10.78,0.020000000000000004
10.784,0.020000000000000004
10.788,0.010000000000000002
10.792,0.010000000000000002
10.796,0.010000000000000002
10.8,0.010000000000000002
10.804,0.010000000000000002
10.808,0.020000000000000004
10.812000000000001,0.020000000000000004
10.815999999999999,0.020000000000000004
10.82,0.020000000000000004
10.824000000000002,0.020000000000000004
10.828,0.020000000000000004
10.832,0.020000000000000004
10.835999999999999,0.020000000000000004
10.84,0.025
10.844000000000001,0.03
10.847999999999999,0.020000000000000004
10.852,0.020000000000000004
10.856,0.010000000000000002
10.86,0.010000000000000002
10.864,0.0
10.868,-0.010000000000000002
10.872,-0.020000000000000004
10.876,-0.020000000000000004
10.88,-0.020000000000000004
10.884,-0.03
10.888,-0.04000000000000001
10.892000000000001,-0.045000000000000005
10.895999999999999,-0.05
10.9,-0.05500000000000001
10.904000000000002,-0.06
10.908,-0.06999999999999999
10.912,-0.07500000000000001
10.915999999999999,-0.08000000000000002
10.92,-0.085
10.924000000000001,-0.09000000000000001
10.927999999999999,-0.1
10.932,-0.1
10.936,-0.11000000000000001
10.94,-0.11000000000000001
10.944,-0.11000000000000001
10.948,-0.11000000000000001
10.952,-0.1
10.956,-0.1
10.96,-0.1
10.964,-0.1
10.968,-0.1
10.972000000000001,-0.09000000000000001
10.975999999999999,-0.09000000000000001
10.98,-0.08000000000000002
10.984000000000002,-0.06999999999999999
10.988,-0.06
10.992,-0.05
10.995999999999999,-0.05
11.0,-0.05
11.004000000000001,-0.04000000000000001
11.008,-0.03
11.012,-0.020000000000000004
11.016,-0.010000000000000002
11.02,-0.010000000000000002
11.024000000000001,-0.010000000000000002
11.028,0.0
11.032,0.010000000000000002
11.036,0.010000000000000002
11.040000000000001,0.010000000000000002
11.044,0.010000000000000002
11.048,0.010000000000000002
11.052000000000001,0.010000000000000002
11.056,0.010000000000000002
11.06,0.010000000000000002
11.064000000000002,0.010000000000000002
11.068,0.010000000000000002
11.072000000000001,0.010000000000000002
11.075999999999999,0.010000000000000002
11.08,0.010000000000000002
11.084000000000001,0.010000000000000002
11.088,0.010000000000000002
11.092,0.010000000000000002
11.096,0.010000000000000002
11.1,0.010000000000000002
11.104000000000001,0.010000000000000002
11.108,0.010000000000000002
11.112,0.010000000000000002
11.116,0.0
11.120000000000001,0.010000000000000002
11.124,0.010000000000000002
11.128,0.010000000000000002
11.132000000000001,0.010000000000000002
11.136,0.010000000000000002
11.14,0.010000000000000002
11.144000000000002,0.010000000000000002
11.148,0.010000000000000002
11.152000000000001,0.010000000000000002
11.155999999999999,0.010000000000000002
11.16,0.010000000000000002
11.164000000000001,0.010000000000000002
11.168,0.010000000000000002
11.172,0.010000000000000002
11.176,0.010000000000000002
11.18,0.010000000000000002
11.184000000000001,0.010000000000000002
11.188,0.010000000000000002
11.192,0.020000000000000004
11.196,0.020000000000000004
11.200000000000001,0.03
11.204,0.03
11.208,0.045000000000000005
11.212000000000002,0.020000000000000004
11.216,-0.005000000000000001
11.22,-0.05500000000000001
11.224000000000002,-0.12
11.228,-0.18500000000000003
11.232000000000001,-0.22999999999999998
11.235999999999999,-0.265
11.24,-0.315
11.244000000000002,-0.37000000000000005
11.248,-0.42500000000000004
11.252,-0.48
11.255999999999998,-0.53
11.26,-0.58
11.264000000000001,-0.63
11.267999999999999,-0.685
11.272,-0.7400000000000001
11.276,-0.785
11.28,-0.81
11.284,-0.8433333333333333
11.288,-0.8683333333333332
11.292,-0.79
11.296,-0.75
11.3,-0.7050000000000001
11.304,-0.6457142857142856
11.308,-0.6025
11.312000000000001,-0.55
11.315999999999999,-0.47000000000000003
11.32,-0.42000000000000004
11.324000000000002,-0.375
11.328,-0.31000000000000005
11.332,-0.23500000000000001
11.335999999999999,-0.17625000000000002
11.34,-0.13399999999999976
11.344000000000001,-0.06999999999999999
11.347999999999999,-0.020000000000000004
11.352,0.020000000000000004
11.356,0.06
11.36,0.1
11.364,0.09000000000000001
11.368,0.08000000000000002
11.372,0.06
11.376,0.05
11.38,0.045000000000000005
11.384,0.04000000000000001
11.388,0.03
11.392000000000001,0.020000000000000004
11.395999999999999,0.020000000000000004
11.4,0.020000000000000004
11.404000000000002,0.020000000000000004
11.408,0.020000000000000004
11.412,0.010000000000000002
11.415999999999999,0.010000000000000002
11.42,0.010000000000000002
11.424000000000001,0.010000000000000002
11.427999999999999,0.010000000000000002
11.432,0.010000000000000002
11.436,0.010000000000000002
11.44,0.010000000000000002
11.444,0.010000000000000002
11.448,0.010000000000000002
11.452,0.010000000000000002
11.456,0.010000000000000002
11.46,0.020000000000000004
11.464,0.020000000000000004
11.468,0.020000000000000004
11.472000000000001,0.020000000000000004
11.475999999999999,0.010000000000000002
11.48,0.010000000000000002
11.484000000000002,0.010000000000000002
11.488,0.010000000000000002
11.492,0.010000000000000002
11.495999999999999,0.010000000000000002
11.5,0.010000000000000002
11.504000000000001,0.010000000000000002
11.508,0.010000000000000002
11.512,0.010000000000000002
11.516,0.010000000000000002
11.52,0.010000000000000002
11.524000000000001,0.010000000000000002
11.528,0.0
11.532,0.0
11.536,0.0
11.540000000000001,0.0
11.544,-0.010000000000000002
11.548,-0.020000000000000004
11.552000000000001,-0.03
11.556,-0.04000000000000001
11.56,-0.04000000000000001
11.564000000000002,-0.05
11.568,-0.06
11.572000000000001,-0.06
11.575999999999999,-0.06999999999999999
11.58,-0.06999999999999999
11.584000000000001,-0.08000000000000002
11.588,-0.09000000000000001
11.592,-0.1
11.596,-0.11000000000000001
11.6,-0.12
11.604000000000001,-0.13
11.608,-0.135
11.612,-0.13999999999999999
11.616,-0.15000000000000002
11.620000000000001,-0.17
11.624,-0.18000000000000002
11.628,-0.18000000000000002
11.632000000000001,-0.19
11.636,-0.2
11.64,-0.21000000000000002
11.644000000000002,-0.22000000000000003
11.648,-0.22000000000000003
11.652000000000001,-0.22000000000000003
11.655999999999999,-0.22999999999999998
11.66,-0.22999999999999998
11.664000000000001,-0.23500000000000001
11.668,-0.24
11.672,-0.24
11.676,-0.24
11.68,-0.24
11.684000000000001,-0.25
11.688,-0.25
11.692,-0.25
11.696,-0.26
11.700000000000001,-0.26
11.704,-0.25
11.708,-0.25
11.712000000000002,-0.25
11.716,-0.25
11.72,-0.25
11.724000000000002,-0.25
11.728,-0.24
11.732000000000001,-0.24
11.735999999999999,-0.24
11.74,-0.24
11.744000000000002,-0.24
11.748,-0.24
11.752,-0.24
11.755999999999998,-0.22999999999999998
11.76,-0.22999999999999998
11.764000000000001,-0.22999999999999998
11.767999999999999,-0.22999999999999998
11.772,-0.22000000000000003
11.776,-0.22000000000000003
11.78,-0.21000000000000002
11.784,-0.2
11.788,-0.195
11.792,-0.19
11.796,-0.18500000000000003
11.8,-0.17
11.804,-0.16000000000000003
11.808,-0.15000000000000002
11.812000000000001,-0.15000000000000002
11.815999999999999,-0.13999999999999999
11.82,-0.12
11.824000000000002,-0.10500000000000001
11.828,-0.1
11.832,-0.095
11.835999999999999,-0.09000000000000001
11.84,-0.09000000000000001
11.844000000000001,-0.085
11.847999999999999,-0.08000000000000002
11.852,-0.06999999999999999
11.856,-0.05500000000000001
11.86,-0.04000000000000001
11.864,-0.03
11.868,-0.025
11.872,-0.020000000000000004
11.876,-0.010000000000000002
11.88,-0.010000000000000002
11.884,0.0
11.888,0.0
11.892000000000001,0.0
11.895999999999999,0.010000000000000002
11.9,0.010000000000000002
11.904000000000002,0.010000000000000002
11.908,0.010000000000000002
11.912,0.020000000000000004
11.915999999999999,0.020000000000000004
11.92,0.020000000000000004
11.924000000000001,0.020000000000000004
11.927999999999999,0.020000000000000004
11.932,0.020000000000000004
11.936,0.020000000000000004
11.94,0.010000000000000002
11.944,0.010000000000000002
11.948,0.010000000000000002
11.952,0.010000000000000002
11.956,0.010000000000000002
11.96,0.0
11.964,0.0
11.968,0.0
11.972000000000001,0.010000000000000002
11.975999999999999,0.010000000000000002
11.98,0.010000000000000002
11.984000000000002,0.010000000000000002
11.988,0.010000000000000002
11.992,0.010000000000000002
11.995999999999999,0.010000000000000002
12.0,0.010000000000000002
12.004000000000001,0.010000000000000002
12.008,0.010000000000000002
12.012,0.010000000000000002
12.016,0.010000000000000002
12.02,0.010000000000000002
12.024000000000001,0.010000000000000002
12.028,0.010000000000000002
12.032,0.010000000000000002
12.036,0.010000000000000002
12.040000000000001,0.0
12.044,0.0
12.048,0.0
12.052000000000001,0.0
12.056,0.005000000000000001
12.06,0.010000000000000002
12.064000000000002,0.010000000000000002
12.068,0.010000000000000002
12.072000000000001,0.010000000000000002
12.075999999999999,0.010000000000000002
12.08,0.010000000000000002
12.084000000000001,0.010000000000000002
12.088,0.010000000000000002
12.092,0.010000000000000002
12.096,0.0
12.1,0.0
12.104000000000001,0.0
12.108,0.0
12.112,0.0
12.116,0.010000000000000002
12.120000000000001,0.010000000000000002
12.124,0.0
12.128,0.0
12.132000000000001,0.0
12.136,0.0
12.14,0.0
12.144000000000002,0.0
12.148,0.0
12.152000000000001,0.0
12.155999999999999,0.0
12.16,0.0
12.164000000000001,0.0
12.168,0.0
12.172,0.0
12.176,0.0
12.18,-0.005000000000000001
12.184000000000001,-0.010000000000000002
12.188,-0.005000000000000001
12.192,0.0
12.196,0.0
12.200000000000001,0.0
12.204,-0.010000000000000002
12.208,-0.010000000000000002
12.212000000000002,-0.010000000000000002
12.216,-0.010000000000000002
12.22,0.0
12.224000000000002,0.0
12.228,0.0
12.232000000000001,0.0
12.235999999999999,0.0
12.24,0.0
12.244000000000002,0.0
12.248,0.0
12.252,0.0
12.256,0.0
12.26,0.0
12.264000000000001,0.0
12.268,0.0
12.272,0.0
12.276,0.0
12.280000000000001,0.0
12.284,0.0
12.288,0.0
12.292000000000002,0.0
12.296,0.0
12.3,0.0
12.304000000000002,0.0
12.308,0.0
12.312000000000001,0.0
12.315999999999999,0.0
12.32,0.0
12.324000000000002,0.0
12.328,0.0
12.332,0.0
12.335999999999999,-0.010000000000000002
12.34,-0.010000000000000002
12.344000000000001,-0.020000000000000004
12.347999999999999,-0.025
12.352,-0.03
12.356,-0.034999999999999996
12.36,-0.045000000000000005
12.364,-0.05500000000000001
12.368,-0.06999999999999999
12.372,-0.08000000000000002
12.376,-0.085
12.38,-0.095
12.384,-0.10500000000000001
12.388,-0.11000000000000001
12.392000000000001,-0.11000000000000001
12.395999999999999,-0.11000000000000001
12.4,-0.11000000000000001
12.404000000000002,-0.11000000000000001
12.408,-0.11000000000000001
12.412,-0.11000000000000001
12.415999999999999,-0.12
12.42,-0.12
12.424000000000001,-0.12
12.427999999999999,-0.12
12.432,-0.11000000000000001
12.436,-0.11000000000000001
12.44,-0.11000000000000001
12.444,-0.11000000000000001
12.448,-0.11000000000000001
12.452,-0.1
12.456,-0.1
12.46,-0.09000000000000001
12.464,-0.08000000000000002
12.468,-0.08000000000000002
12.472000000000001,-0.08000000000000002
12.475999999999999,-0.06999999999999999
12.48,-0.06
12.484000000000002,-0.05
12.488,-0.04000000000000001
12.492,-0.03
12.495999999999999,-0.03
12.5,-0.020000000000000004
12.504000000000001,-0.020000000000000004
12.508,-0.010000000000000002
12.512,-0.010000000000000002
12.516,0.0
12.52,0.0
12.524000000000001,0.0
12.528,0.0
12.532,0.0
12.536,0.0
12.540000000000001,0.0
12.544,0.0
12.548,0.0
12.552000000000001,0.0
12.556,0.0
12.56,0.0
12.564000000000002,0.0
12.568,-0.010000000000000002
12.572000000000001,0.0
12.575999999999999,0.0
12.58,0.0
12.584000000000001,0.0
12.588,0.0
12.592,0.0
12.596,0.0
12.6,-0.010000000000000002
12.604000000000001,-0.010000000000000002
12.608,-0.010000000000000002
12.612,-0.005000000000000001
12.616,0.0
12.620000000000001,0.0
12.624,0.0
12.628,0.0
12.632000000000001,0.0
12.636,-0.010000000000000002
12.64,-0.010000000000000002
12.644000000000002,-0.010000000000000002
12.648,0.0
12.652000000000001,0.0
12.655999999999999,0.0
12.66,0.0
12.664000000000001,-0.010000000000000002
12.668,-0.010000000000000002
12.672,0.005000000000000001
12.676,0.020000000000000004
12.68,0.03
12.684000000000001,0.03
12.688,0.015
12.692,-0.015
12.696,-0.08000000000000002
12.700000000000001,-0.15000000000000002
12.704,-0.195
12.708,-0.23500000000000001
12.712000000000002,-0.27999999999999997
12.716,-0.34
12.72,-0.405
12.724000000000002,-0.455
12.728,-0.49500000000000005
12.732000000000001,-0.55
12.735999999999999,-0.6200000000000001
12.74,-0.68
12.744000000000002,-0.7250000000000001
12.748,-0.755
12.752,-0.79
12.756,-0.8480000000000001
12.76,-0.8680000000000002
12.764000000000001,-0.8675000000000002
12.768,-0.8500000000000001
12.772,-0.8050000000000002
12.776,-0.75
12.780000000000001,-0.675
12.784,-0.61
12.788,-0.5599999999999999
12.792000000000002,-0.51
12.796,-0.45999999999999996
12.8,-0.405
12.804000000000002,-0.34
12.808,-0.265
12.812000000000001,-0.21000000000000002
12.815999999999999,-0.17500000000000002
12.82,-0.12
12.824000000000002,-0.045000000000000005
12.828,0.03
12.832,0.05666666666666686
12.835999999999999,0.06333333333333314
12.84,0.065
12.844000000000001,0.06
12.847999999999999,0.05
12.852,0.04000000000000001
12.856,0.04000000000000001
12.86,0.03
12.864,0.020000000000000004
12.868,0.010000000000000002
12.872,0.0
12.876,0.0
12.88,0.0
12.884,0.0
12.888,0.0
12.892000000000001,0.0
12.895999999999999,0.0
12.9,-0.010000000000000002
12.904000000000002,0.0
12.908,0.0
12.912,0.0
12.915999999999999,0.0
12.92,0.0
12.924000000000001,0.0
12.927999999999999,0.0
12.932,0.0
12.936,0.0
12.94,-0.010000000000000002
12.944,-0.010000000000000002
12.948,-0.010000000000000002
12.952,-0.010000000000000002
12.956,-0.010000000000000002
12.96,-0.010000000000000002
12.964,-0.010000000000000002
12.968,-0.005000000000000001
12.972000000000001,0.0
12.975999999999999,0.0
12.98,0.0
12.984000000000002,0.0
12.988,0.0
12.992,0.0
12.995999999999999,0.0
13.0,0.0
13.004000000000001,0.0
13.008,0.0
13.012,0.0
13.016,-0.010000000000000002
13.02,-0.025
13.024000000000001,-0.04000000000000001
13.028,-0.04000000000000001
13.032,-0.05
13.036,-0.05
13.040000000000001,-0.06
13.044,-0.06999999999999999
13.048,-0.08000000000000002
13.052000000000001,-0.08000000000000002
13.056,-0.09000000000000001
13.06,-0.1
13.064000000000002,-0.11000000000000001
13.068,-0.12
13.072000000000001,-0.12
13.075999999999999,-0.13
13.08,-0.13999999999999999
13.084000000000001,-0.15500000000000003
13.088,-0.17
13.092,-0.18000000000000002
13.096,-0.195
13.1,-0.2
13.104000000000001,-0.205
13.108,-0.21000000000000002
13.112,-0.215
13.116,-0.22000000000000003
13.120000000000001,-0.22999999999999998
13.124,-0.24
13.128,-0.25
13.132000000000001,-0.25
13.136,-0.25
13.14,-0.26
13.144000000000002,-0.26
13.148,-0.26
13.152000000000001,-0.26
13.155999999999999,-0.26
13.16,-0.26
13.164000000000001,-0.27
13.168,-0.26
13.172,-0.26
13.176,-0.26
13.18,-0.27
13.184000000000001,-0.27
13.188,-0.27999999999999997
13.192,-0.275
13.196,-0.27
13.200000000000001,-0.265
13.204,-0.26
13.208,-0.26
13.212000000000002,-0.26
13.216,-0.26
13.22,-0.26
13.224000000000002,-0.255
13.228,-0.25
13.232000000000001,-0.25
13.235999999999999,-0.24
13.24,-0.24
13.244000000000002,-0.24
13.248,-0.22999999999999998
13.252,-0.22999999999999998
13.256,-0.22000000000000003
13.26,-0.22000000000000003
13.264000000000001,-0.21000000000000002
13.268,-0.2
13.272,-0.19
13.276,-0.18000000000000002
13.280000000000001,-0.18000000000000002
13.284,-0.17
13.288,-0.15500000000000003
13.292000000000002,-0.13999999999999999
13.296,-0.12
13.3,-0.11000000000000001
13.304000000000002,-0.10500000000000001
13.308,-0.1
13.312000000000001,-0.1
13.315999999999999,-0.1
13.32,-0.09000000000000001
13.324000000000002,-0.06999999999999999
13.328,-0.06
13.332,-0.06
13.335999999999999,-0.06
13.34,-0.05
13.344000000000001,-0.04000000000000001
13.347999999999999,-0.03
13.352,-0.020000000000000004
13.356,-0.020000000000000004
13.36,-0.010000000000000002
13.364,0.0
13.368,0.0
13.372,0.0
13.376,0.0
13.38,0.0
13.384,0.010000000000000002
13.388,0.0
13.392000000000001,0.0
13.395999999999999,0.0
13.4,0.0
13.404000000000002,0.0
13.408,0.0
13.412,0.0
13.415999999999999,0.0
13.42,0.0
13.424000000000001,0.010000000000000002
13.427999999999999,0.010000000000000002
13.432,0.020000000000000004
13.436,0.020000000000000004
13.44,0.020000000000000004
13.444,0.010000000000000002
13.448,0.0
13.452,0.0
13.456,0.0
13.46,0.0
13.464,0.0
13.468,0.0
13.472000000000001,0.0
13.475999999999999,0.0
13.48,0.0
13.484000000000002,0.0
13.488,0.0
13.492,0.0
13.495999999999999,0.0
13.5,0.0
13.504000000000001,0.0
13.508,0.0
13.512,0.0
13.516,0.0
13.52,0.0
13.524000000000001,-0.010000000000000002
13.528,-0.010000000000000002
13.532,0.0
13.536,0.0
13.540000000000001,0.0
13.544,0.0
13.548,0.0
13.552000000000001,0.0
13.556,0.0
13.56,0.0
13.564000000000002,0.0
13.568,0.0
13.572000000000001,0.0
13.575999999999999,0.0
13.58,0.0
13.584000000000001,0.0
13.588,0.0
13.592,0.0
13.596,0.0
13.6,0.0
13.604000000000001,-0.010000000000000002
13.608,-0.010000000000000002
13.612,-0.010000000000000002
13.616,-0.010000000000000002
13.620000000000001,-0.010000000000000002
13.624,-0.010000000000000002
13.628,-0.010000000000000002
13.632000000000001,0.0
13.636,0.0
13.64,0.0
13.644000000000002,0.0
13.648,0.0
13.652000000000001,0.0
13.655999999999999,0.0
13.66,0.0
13.664000000000001,0.0
13.668,0.0
13.672,0.0
13.676,0.0
13.68,0.0
13.684000000000001,0.0
13.688,0.0
13.692,0.0
13.696,0.0
13.700000000000001,0.0
13.704,0.0
13.708,0.0
13.712000000000002,0.0
13.716,0.0
13.72,0.0
13.724000000000002,0.0
13.728,0.0
13.732000000000001,0.0
13.735999999999999,0.0
13.74,0.010000000000000002
13.744000000000002,0.010000000000000002
13.748,0.010000000000000002
13.752,0.010000000000000002
13.756,0.010000000000000002
13.76,0.0
13.764000000000001,0.010000000000000002
13.768,0.010000000000000002
13.772,0.010000000000000002
13.776,0.0
13.780000000000001,0.0
13.784,0.0
13.788,0.0
13.792000000000002,0.0
13.796,0.0
13.8,0.0
13.804000000000002,0.0
13.808,0.0
13.812000000000001,0.0
13.815999999999999,-0.010000000000000002
13.82,-0.025
13.824000000000002,-0.03
13.828,-0.034999999999999996
13.832,-0.04000000000000001
13.835999999999999,-0.04000000000000001
13.84,-0.05
13.844000000000001,-0.06
13.847999999999999,-0.06
13.852,-0.06
13.856,-0.07500000000000001
13.86,-0.09000000000000001
13.864,-0.1
13.868,-0.1
13.872,-0.10500000000000001
13.876,-0.11000000000000001
13.88,-0.11000000000000001
13.884,-0.11000000000000001
13.888,-0.11000000000000001
13.892000000000001,-0.11000000000000001
13.895999999999999,-0.12
13.9,-0.12
13.904000000000002,-0.12
13.908,-0.12
13.912,-0.11000000000000001
13.915999999999999,-0.1
13.92,-0.1
13.924000000000001,-0.1
13.927999999999999,-0.1
13.932,-0.085
13.936,-0.08000000000000002
13.94,-0.07500000000000001
13.944,-0.06999999999999999
13.948,-0.06
13.952,-0.05500000000000001
13.956,-0.05
13.96,-0.045000000000000005
13.964,-0.04000000000000001
13.968,-0.025
13.972000000000001,-0.020000000000000004
13.975999999999999,-0.015
13.98,-0.010000000000000002
13.984000000000002,-0.010000000000000002
13.988,0.0
13.992,0.0
13.995999999999999,0.0
14.0,0.0
14.004000000000001,0.0
14.008,0.0
14.012,0.0
14.016,0.0
14.02,0.0
14.024000000000001,0.0
14.028,0.0
14.032,0.0
14.036,0.0
14.040000000000001,0.010000000000000002
14.044,0.010000000000000002
14.048,0.010000000000000002
14.052000000000001,0.010000000000000002
14.056,0.010000000000000002
14.06,0.0
14.064000000000002,0.0
14.068,0.0
14.072000000000001,0.0
14.075999999999999,0.0
14.08,0.0
14.084000000000001,0.0
14.088,0.0
14.092,0.0
14.096,0.0
14.1,0.0
14.104000000000001,0.0
14.108,0.0
14.112,0.010000000000000002
14.116,0.010000000000000002
14.120000000000001,0.010000000000000002
14.124,0.010000000000000002
14.128,0.010000000000000002
14.132000000000001,0.010000000000000002
14.136,0.010000000000000002
14.14,0.010000000000000002
14.144000000000002,0.020000000000000004
14.148,0.04000000000000001
14.152000000000001,0.05
14.155999999999999,0.04000000000000001
14.16,0.03
14.164000000000001,0.005000000000000001
14.168,-0.045000000000000005
14.172,-0.085
14.176,-0.13
14.18,-0.18500000000000003
14.184000000000001,-0.24500000000000002
14.188,-0.29500000000000004
14.192,-0.34
14.196,-0.385
14.200000000000001,-0.42500000000000004
14.204,-0.47500000000000003
14.208,-0.5544444444444446
14.212000000000002,-0.5975
14.216,-0.635
14.22,-0.685
14.224000000000002,-0.7400000000000001
14.228,-0.8
14.232000000000001,-0.835
14.235999999999999,-0.875
14.24,-0.8500000000000001
14.244000000000002,-0.8300000000000001
14.248,-0.775
14.252,-0.7000000000000001
14.256,-0.6400000000000001
14.26,-0.5950000000000001
14.264000000000001,-0.545
14.268,-0.48
14.272,-0.41
14.276,-0.34
14.280000000000001,-0.275
14.284,-0.23500000000000001
14.288,-0.19
14.292000000000002,-0.12
14.296,-0.05500000000000001
14.3,0.010000000000000002
14.304000000000002,0.05500000000000001
14.308,0.06999999999999999
14.312000000000001,0.09000000000000001
14.315999999999999,0.09333333333333316
14.32,0.07500000000000001
14.324000000000002,0.05500000000000001
14.328,0.05
14.332,0.045000000000000005
14.335999999999999,0.04000000000000001
14.34,0.03
14.344000000000001,0.020000000000000004
14.347999999999999,0.020000000000000004
14.352,0.020000000000000004
14.356,0.010000000000000002
14.36,0.010000000000000002
14.364,0.010000000000000002
14.368,0.010000000000000002
14.372,0.010000000000000002
14.376,0.010000000000000002
14.38,0.010000000000000002
14.384,0.010000000000000002
14.388,0.010000000000000002
14.392000000000001,0.010000000000000002
14.395999999999999,0.010000000000000002
14.4,0.010000000000000002
14.404000000000002,0.010000000000000002
14.408,0.020000000000000004
14.412,0.020000000000000004
14.415999999999999,0.020000000000000004
14.42,0.020000000000000004
14.424000000000001,0.020000000000000004
14.427999999999999,0.020000000000000004
14.432,0.020000000000000004
14.436,0.025
14.44,0.025
14.444,0.010000000000000002
14.448,0.010000000000000002
14.452,0.010000000000000002
14.456,0.010000000000000002
14.46,0.010000000000000002
14.464,0.010000000000000002
14.468,0.010000000000000002
14.472000000000001,0.010000000000000002
14.475999999999999,0.010000000000000002
14.48,0.010000000000000002
14.484000000000002,0.010000000000000002
14.488,0.010000000000000002
14.492,0.010000000000000002
14.495999999999999,0.005000000000000001
14.5,0.0
14.504000000000001,-0.010000000000000002
14.508,-0.03
14.512,-0.04000000000000001
14.516,-0.04000000000000001
14.52,-0.05
14.524000000000001,-0.05
14.528,-0.06
14.532,-0.06999999999999999
14.536,-0.08000000000000002
14.540000000000001,-0.09000000000000001
14.544,-0.1
14.548,-0.11000000000000001
14.552000000000001,-0.12
14.556,-0.13
14.56,-0.13999999999999999
14.564000000000002,-0.15000000000000002
14.568,-0.15000000000000002
14.572000000000001,-0.16000000000000003
14.575999999999999,-0.17
14.58,-0.18000000000000002
14.584000000000001,-0.19
14.588,-0.19
14.592,-0.2
14.596,-0.21000000000000002
14.6,-0.22000000000000003
14.604000000000001,-0.22999999999999998
14.608,-0.22999999999999998
14.612,-0.22999999999999998
14.616,-0.22999999999999998
14.620000000000001,-0.22999999999999998
14.624,-0.22999999999999998
14.628,-0.22999999999999998
14.632000000000001,-0.24
14.636,-0.24
14.64,-0.24
14.644000000000002,-0.24
14.648,-0.24
14.652000000000001,-0.25
14.655999999999999,-0.25
14.66,-0.25
14.664000000000001,-0.25
14.668,-0.25
14.672,-0.24
14.676,-0.24
14.68,-0.24
14.684000000000001,-0.24
14.688,-0.24
14.692,-0.22999999999999998
14.696,-0.22999999999999998
14.700000000000001,-0.22999999999999998
14.704,-0.22999999999999998
14.708,-0.22000000000000003
14.712000000000002,-0.22000000000000003
14.716,-0.22000000000000003
14.72,-0.21000000000000002
14.724000000000002,-0.21000000000000002
14.728,-0.2
14.732000000000001,-0.2
14.735999999999999,-0.19
14.74,-0.19
14.744000000000002,-0.18000000000000002
14.748,-0.17
14.752,-0.16000000000000003
14.756,-0.15000000000000002
14.76,-0.15000000000000002
14.764000000000001,-0.13999999999999999
14.768,-0.13
14.772,-0.11499999999999999
14.776,-0.1
14.780000000000001,-0.09000000000000001
14.784,-0.08000000000000002
14.788,-0.065
14.792000000000002,-0.06
14.796,-0.05500000000000001
14.8,-0.05
14.804000000000002,-0.045000000000000005
14.808,-0.04000000000000001
14.812000000000001,-0.03
14.815999999999999,-0.015
14.82,0.0
14.824000000000002,0.0
14.828,0.010000000000000002
14.832,0.010000000000000002
14.835999999999999,0.020000000000000004
14.84,0.03
14.844000000000001,0.03
14.847999999999999,0.03
14.852,0.03
14.856,0.03
14.86,0.03
14.864,0.03
14.868,0.03
14.872,0.03
14.876,0.020000000000000004
14.88,0.020000000000000004
14.884,0.020000000000000004
14.888,0.020000000000000004
14.892000000000001,0.020000000000000004
14.895999999999999,0.020000000000000004
14.9,0.020000000000000004
14.904000000000002,0.020000000000000004
14.908,0.020000000000000004
14.912,0.020000000000000004
14.915999999999999,0.020000000000000004
14.92,0.020000000000000004
14.924000000000001,0.020000000000000004
14.927999999999999,0.020000000000000004
14.932,0.020000000000000004
14.936,0.020000000000000004
14.94,0.020000000000000004
14.944,0.020000000000000004
14.948,0.020000000000000004
14.952,0.020000000000000004
14.956,0.015
14.96,0.010000000000000002
14.964,0.015
14.968,0.020000000000000004
14.972000000000001,0.020000000000000004
14.975999999999999,0.020000000000000004
14.98,0.020000000000000004
14.984000000000002,0.020000000000000004
14.988,0.020000000000000004
14.992,0.020000000000000004
14.995999999999999,0.020000000000000004
15.0,0.020000000000000004
15.004000000000001,0.020000000000000004
15.008,0.020000000000000004
15.012,0.020000000000000004
15.016,0.020000000000000004
15.02,0.020000000000000004
15.024000000000001,0.010000000000000002
15.028,0.010000000000000002
15.032,0.010000000000000002
15.036,0.010000000000000002
15.040000000000001,0.010000000000000002
15.044,0.010000000000000002
15.048,0.020000000000000004
15.052000000000001,0.020000000000000004
15.056,0.020000000000000004
15.06,0.020000000000000004
15.064000000000002,0.020000000000000004
15.068,0.020000000000000004
15.072000000000001,0.020000000000000004
15.075999999999999,0.020000000000000004
15.08,0.020000000000000004
15.084000000000001,0.020000000000000004
15.088,0.020000000000000004
15.092,0.020000000000000004
15.096,0.020000000000000004
15.1,0.020000000000000004
15.104000000000001,0.020000000000000004
15.108,0.020000000000000004
15.112,0.020000000000000004
15.116,0.020000000000000004
15.120000000000001,0.020000000000000004
15.124,0.020000000000000004
15.128,0.020000000000000004
15.132000000000001,0.020000000000000004
15.136,0.020000000000000004
15.14,0.020000000000000004
15.144000000000002,0.020000000000000004
15.148,0.020000000000000004
15.152000000000001,0.020000000000000004
15.155999999999999,0.010000000000000002
15.16,0.020000000000000004
15.164000000000001,0.020000000000000004
15.168,0.020000000000000004
15.172,0.020000000000000004
15.176,0.020000000000000004
15.18,0.020000000000000004
15.184000000000001,0.020000000000000004
15.188,0.010000000000000002
15.192,0.010000000000000002
15.196,0.010000000000000002
15.200000000000001,0.010000000000000002
15.204,0.010000000000000002
15.208,0.010000000000000002
15.212000000000002,0.010000000000000002
15.216,0.010000000000000002
15.22,0.010000000000000002
15.224000000000002,0.010000000000000002
15.228,0.010000000000000002
15.232000000000001,0.010000000000000002
15.235999999999999,0.010000000000000002
15.24,0.010000000000000002
15.244000000000002,0.010000000000000002
15.248,0.010000000000000002
15.252,0.015
15.256,0.020000000000000004
15.26,0.010000000000000002
15.264000000000001,0.010000000000000002
15.268,0.010000000000000002
15.272,0.010000000000000002
15.276,0.010000000000000002
15.280000000000001,0.010000000000000002
15.284,0.0
15.288,0.0
15.292000000000002,0.0
15.296,-0.010000000000000002
15.3,-0.010000000000000002
15.304000000000002,-0.020000000000000004
15.308,-0.03
15.312000000000001,-0.03
15.315999999999999,-0.04000000000000001
15.32,-0.05
15.324000000000002,-0.05
15.328,-0.06
15.332,-0.06999999999999999
15.335999999999999,-0.08000000000000002
15.34,-0.09000000000000001
15.344000000000001,-0.09000000000000001
15.347999999999999,-0.09000000000000001
15.352,-0.09000000000000001
15.356,-0.1
15.36,-0.11000000000000001
15.364,-0.11000000000000001
15.368,-0.11000000000000001
15.372000000000002,-0.11000000000000001
15.376,-0.11000000000000001
15.38,-0.11000000000000001
15.384000000000002,-0.11000000000000001
15.388,-0.11000000000000001
15.392000000000001,-0.1
15.395999999999999,-0.1
15.4,-0.1
15.404000000000002,-0.09000000000000001
15.408,-0.09000000000000001
15.412,-0.08000000000000002
15.415999999999999,-0.06999999999999999
15.42,-0.06
15.424000000000001,-0.06
15.427999999999999,-0.05
15.432,-0.05
15.436,-0.04000000000000001
15.44,-0.03
15.444,-0.020000000000000004
15.448,-0.010000000000000002
15.452,0.0
15.456,0.0
15.46,0.010000000000000002
15.464,0.010000000000000002
15.468,0.010000000000000002
15.472000000000001,0.010000000000000002
15.475999999999999,0.010000000000000002
15.48,0.010000000000000002
15.484000000000002,0.010000000000000002
15.488,0.020000000000000004
15.492,0.020000000000000004
15.495999999999999,0.020000000000000004
15.5,0.020000000000000004
15.504000000000001,0.020000000000000004
15.508,0.020000000000000004
15.512,0.010000000000000002
15.516,0.010000000000000002
15.52,0.010000000000000002
15.524000000000001,0.010000000000000002
15.528,0.010000000000000002
15.532,0.010000000000000002
15.536,0.010000000000000002
15.540000000000001,0.010000000000000002
15.544,0.010000000000000002
15.548,0.010000000000000002
15.552000000000001,0.010000000000000002
15.556,0.010000000000000002
15.56,0.010000000000000002
15.564000000000002,0.010000000000000002
15.568,0.010000000000000002
15.572000000000001,0.03
15.575999999999999,0.010000000000000002
15.58,0.005000000000000001
15.584000000000001,0.0
15.588,0.005000000000000001
15.592,0.010000000000000002
15.596,0.010000000000000002
15.6,0.010000000000000002
15.604000000000001,0.010000000000000002
15.608,0.010000000000000002
15.612,0.005000000000000001
15.616,0.0
15.620000000000001,0.010000000000000002
15.624,0.020000000000000004
15.628,0.03
15.632000000000001,0.03
15.636,0.03
15.64,0.010000000000000002
15.644000000000002,-0.020000000000000004
15.648,-0.05500000000000001
15.652000000000001,-0.11499999999999999
15.655999999999999,-0.19
15.66,-0.25
15.664000000000001,-0.29
15.668,-0.325
15.672,-0.375
15.676,-0.43
15.68,-0.485
15.684000000000001,-0.535
15.688,-0.5750000000000001
15.692,-0.625
15.696,-0.685
15.700000000000001,-0.7450000000000001
15.704,-0.8
15.708,-0.835
15.712000000000002,-0.8500000000000001
15.716,-0.885
15.72,-0.835
15.724000000000002,-0.795
15.728,-0.735
15.732000000000001,-0.685
15.735999999999999,-0.63
15.74,-0.5599999999999999
15.744000000000002,-0.49000000000000005
15.748,-0.42000000000000004
15.752,-0.365
15.756,-0.325
15.76,-0.275
15.764000000000001,-0.205
15.768,-0.13999999999999999
15.772,-0.09000000000000001
15.776,-0.045000000000000005
15.780000000000001,0.0
15.784,0.065
15.788,0.08000000000000002
15.792000000000002,0.08000000000000002
15.796,0.065
15.8,0.06
15.804000000000002,0.06
15.808,0.06333333333333314
15.812000000000001,0.05333333333333315
15.815999999999999,0.045000000000000005
15.82,0.020000000000000004
15.824000000000002,0.020000000000000004
15.828,0.020000000000000004
15.832,0.010000000000000002
15.836,0.010000000000000002
15.84,0.010000000000000002
15.844000000000001,0.010000000000000002
15.848,0.010000000000000002
15.852,0.010000000000000002
15.856,0.0
15.860000000000001,0.0
15.864,0.0
15.868,0.0
15.872000000000002,0.0
15.876,0.0
15.88,0.010000000000000002
15.884000000000002,0.010000000000000002
15.888,0.020000000000000004
15.892000000000001,0.020000000000000004
15.895999999999999,0.010000000000000002
15.9,0.010000000000000002
15.904000000000002,0.0
15.908,0.0
15.912,0.0
15.915999999999999,0.0
15.92,0.0
15.924000000000001,0.010000000000000002
15.927999999999999,0.010000000000000002
15.932,0.010000000000000002
15.936,0.010000000000000002
15.94,0.010000000000000002
15.944,0.0
15.948,0.0
15.952,0.0
15.956,0.0
15.96,0.0
15.964,0.0
15.968,-0.010000000000000002
15.972000000000001,-0.010000000000000002
15.975999999999999,-0.020000000000000004
15.98,-0.03
15.984000000000002,-0.04000000000000001
15.988,-0.05
15.992,-0.06
15.995999999999999,-0.06
16.0,-0.06999999999999999
16.004,-0.08000000000000002
16.008,-0.09000000000000001
16.012,-0.09000000000000001
16.016,-0.1
16.02,-0.11000000000000001
16.024,-0.12
16.028,-0.13
16.032,-0.13999999999999999
16.035999999999998,-0.15000000000000002
16.04,-0.16000000000000003
16.044,-0.17
16.048,-0.18000000000000002
16.052,-0.18000000000000002
16.056,-0.19
16.06,-0.2
16.064,-0.21000000000000002
16.068,-0.22000000000000003
16.072,-0.22999999999999998
16.076,-0.22999999999999998
16.080000000000002,-0.24
16.084,-0.24
16.088,-0.24
16.092000000000002,-0.24
16.096,-0.24
16.1,-0.25
16.104000000000003,-0.25
16.108,-0.25
16.112000000000002,-0.25
16.116,-0.26
16.12,-0.26
16.124000000000002,-0.26
16.128,-0.26
16.132,-0.26
16.136,-0.26
16.14,-0.26
16.144000000000002,-0.26
16.148,-0.26
16.152,-0.26
16.156,-0.25
16.16,-0.25
16.164,-0.25
16.168,-0.25
16.172,-0.25
16.176,-0.22999999999999998
16.18,-0.24
16.184,-0.24
16.188,-0.24
16.192,-0.24
16.195999999999998,-0.22999999999999998
16.2,-0.22999999999999998
16.204,-0.22999999999999998
16.208,-0.22999999999999998
16.212,-0.225
16.216,-0.21000000000000002
16.22,-0.2
16.224,-0.19
16.228,-0.17500000000000002
16.232,-0.17
16.236,-0.165
16.240000000000002,-0.16000000000000003
16.244,-0.15000000000000002
16.248,-0.135
16.252000000000002,-0.11499999999999999
16.256,-0.11000000000000001
16.26,-0.10500000000000001
16.264000000000003,-0.1
16.268,-0.095
16.272000000000002,-0.09000000000000001
16.276,-0.085
16.28,-0.08000000000000002
16.284000000000002,-0.06999999999999999
16.288,-0.06
16.292,-0.05
16.296,-0.04000000000000001
16.3,-0.03
16.304000000000002,-0.020000000000000004
16.308,-0.010000000000000002
16.312,-0.010000000000000002
16.316,-0.010000000000000002
16.32,0.0
16.324,0.0
16.328,0.0
16.332,0.0
16.336,0.0
16.34,0.0
16.344,-0.010000000000000002
16.348,0.0
16.352,0.0
16.355999999999998,0.0
16.36,0.0
16.364,0.0
16.368,0.0
16.372,0.0
16.375999999999998,0.0
16.38,0.0
16.384,0.0
16.387999999999998,0.0
16.392,0.0
16.396,0.0
16.4,-0.010000000000000002
16.404,0.0
16.408,0.0
16.412,0.0
16.416,0.0
16.42,0.0
16.424,0.0
16.428,0.0
16.432000000000002,0.0
16.436,0.0
16.44,0.0
16.444000000000003,0.0
16.448,0.0
16.452,0.0
16.456,0.0
16.46,0.0
16.464000000000002,0.0
16.468,0.0
16.472,0.0
16.476,0.0
16.48,0.0
16.484,0.0
16.488,0.0
16.492,0.0
16.496,0.0
16.5,0.0
16.504,0.0
16.508,0.0
16.512,0.0
16.516,0.0
16.52,0.0
16.524,0.0
16.528,0.0
16.532,0.0
16.535999999999998,0.0
16.54,0.0
16.544,0.0
16.548,0.0
16.552,0.0
16.556,0.0
16.56,-0.010000000000000002
16.564,-0.010000000000000002
16.568,-0.010000000000000002
16.572,-0.010000000000000002
16.576,-0.010000000000000002
16.580000000000002,-0.010000000000000002
16.584,-0.010000000000000002
16.588,-0.010000000000000002
16.592000000000002,-0.010000000000000002
16.596,-0.010000000000000002
16.6,0.0
16.604000000000003,0.0
16.608,0.0
16.612000000000002,0.0
16.616,0.0
16.62,0.0
16.624000000000002,0.0
16.628,0.0
16.632,0.0
16.636,0.0
16.64,0.0
16.644000000000002,0.0
16.648,0.0
16.652,0.0
16.656,0.0
16.66,-0.010000000000000002
16.664,-0.010000000000000002
16.668,-0.010000000000000002
16.672,-0.010000000000000002
16.676,-0.010000000000000002
16.68,-0.010000000000000002
16.684,-0.010000000000000002
16.688,-0.010000000000000002
16.692,-0.010000000000000002
16.695999999999998,-0.010000000000000002
16.7,-0.010000000000000002
16.704,-0.010000000000000002
16.708,-0.010000000000000002
16.712,-0.010000000000000002
16.716,-0.010000000000000002
16.72,-0.010000000000000002
16.724,-0.010000000000000002
16.728,-0.010000000000000002
16.732,-0.010000000000000002
16.736,-0.010000000000000002
16.740000000000002,-0.010000000000000002
16.744,-0.010000000000000002
16.748,-0.010000000000000002
16.752000000000002,-0.010000000000000002
16.756,-0.010000000000000002
16.76,-0.010000000000000002
16.764000000000003,-0.010000000000000002
16.768,-0.010000000000000002
16.772000000000002,-0.020000000000000004
16.776,-0.020000000000000004
16.78,-0.03
16.784000000000002,-0.04000000000000001
16.788,-0.05
16.792,-0.06
16.796,-0.06999999999999999
16.8,-0.06999999999999999
16.804000000000002,-0.08000000000000002
16.808,-0.09000000000000001
16.812,-0.1
16.816,-0.11000000000000001
16.82,-0.11000000000000001
16.824,-0.11000000000000001
16.828,-0.11000000000000001
16.832,-0.12
16.836,-0.12
16.84,-0.12
16.844,-0.12
16.848,-0.12
16.852,-0.12
16.855999999999998,-0.12
16.86,-0.11000000000000001
16.864,-0.11000000000000001
16.868,-0.1
16.872,-0.1
16.875999999999998,-0.1
16.88,-0.1
16.884,-0.1
16.887999999999998,-0.1
16.892,-0.09000000000000001
16.896,-0.09000000000000001
16.9,-0.08000000000000002
16.904,-0.06999999999999999
16.908,-0.06
16.912,-0.05
16.916,-0.05
16.92,-0.04000000000000001
16.924,-0.04000000000000001
16.928,-0.03
16.932000000000002,-0.020000000000000004
16.936,-0.020000000000000004
16.94,-0.020000000000000004
16.944000000000003,-0.020000000000000004
16.948,-0.020000000000000004
16.952,-0.010000000000000002
16.956,-0.010000000000000002
16.96,-0.010000000000000002
16.964000000000002,-0.010000000000000002
16.968,-0.010000000000000002
16.972,-0.010000000000000002
16.976,-0.010000000000000002
16.98,-0.010000000000000002
16.984,-0.010000000000000002
16.988,-0.010000000000000002
16.992,-0.010000000000000002
16.996,-0.010000000000000002
17.0,-0.010000000000000002
17.004,-0.010000000000000002
17.008,-0.010000000000000002
17.012,0.0
17.016,0.0
17.02,0.0
17.024,-0.010000000000000002
17.028,-0.010000000000000002
17.032,0.0
17.035999999999998,0.0
17.04,0.0
17.044,0.0
17.048,0.0
17.052,0.0
17.056,-0.010000000000000002
17.06,0.0
17.064,0.0
17.068,0.0
17.072,0.0
17.076,0.0
17.080000000000002,0.0
17.084,0.0
17.088,-0.010000000000000002
17.092000000000002,-0.010000000000000002
17.096,-0.010000000000000002
17.1,0.0
17.104000000000003,0.020000000000000004
17.108,0.03
17.112000000000002,0.03
17.116,0.03
17.12,-0.005000000000000001
17.124000000000002,-0.06
17.128,-0.125
17.132,-0.195
17.136,-0.24
17.14,-0.275
17.144000000000002,-0.33
17.148,-0.39
17.152,-0.44000000000000006
17.156,-0.485
17.16,-0.53
17.164,-0.58
17.168,-0.6400000000000001
17.172,-0.71
17.176,-0.77
17.18,-0.8150000000000001
17.184,-0.8300000000000001
17.188,-0.86
17.192,-0.8716666666666669
17.195999999999998,-0.8250000000000001
17.2,-0.8
17.204,-0.755
17.208,-0.6900000000000001
17.212,-0.6200000000000001
17.216,-0.535
17.22,-0.48750000000000004
17.224,-0.45600000000000024
17.228,-0.4
17.232,-0.34
17.236,-0.27
17.240000000000002,-0.21000000000000002
17.244,-0.17
17.248,-0.12
17.252000000000002,-0.06
17.256,-0.005000000000000001
17.26,0.04000000000000001
17.264000000000003,0.06
17.268,0.06999999999999999
17.272000000000002,0.06
17.276,0.05
17.28,0.04000000000000001
17.284000000000002,0.03
17.288,0.03
17.292,0.020000000000000004
17.296,0.010000000000000002
17.3,0.0
17.304000000000002,0.0
17.308,0.0
17.312,0.0
17.316,0.0
17.32,0.0
17.324,0.0
17.328,0.0
17.332,0.0
17.336,0.0
17.34,0.0
17.344,0.0
17.348,0.0
17.352,0.0
17.355999999999998,0.0
17.36,0.0
17.364,0.0
17.368,0.0
17.372,-0.010000000000000002
17.376,0.0
17.38,0.0
17.384,0.0
17.388,0.0
17.392,0.0
17.396,0.0
17.400000000000002,0.0
17.404,0.0
17.408,0.0
17.412000000000003,0.0
17.416,0.0
17.42,0.0
17.424000000000003,-0.010000000000000002
17.428,-0.010000000000000002
17.432000000000002,-0.010000000000000002
17.436,-0.010000000000000002
17.44,-0.010000000000000002
17.444000000000003,-0.010000000000000002
17.448,-0.020000000000000004
17.452,-0.020000000000000004
17.456,-0.03
17.46,-0.04000000000000001
17.464000000000002,-0.05
17.468,-0.06
17.472,-0.06999999999999999
17.476,-0.07500000000000001
17.48,-0.08000000000000002
17.484,-0.09000000000000001
17.488,-0.1
17.492,-0.1
17.496,-0.1
17.5,-0.11000000000000001
17.504,-0.12
17.508,-0.13
17.512,-0.15000000000000002
17.516,-0.16000000000000003
17.52,-0.17
17.524,-0.18000000000000002
17.528,-0.18500000000000003
17.532,-0.19
17.535999999999998,-0.2
17.54,-0.21000000000000002
17.544,-0.21000000000000002
17.548,-0.22000000000000003
17.552,-0.22000000000000003
17.556,-0.22999999999999998
17.56,-0.24
17.564,-0.24
17.568,-0.24500000000000002
17.572,-0.25
17.576,-0.255
17.580000000000002,-0.26
17.584,-0.25
17.588,-0.25
17.592000000000002,-0.25
17.596,-0.25
17.6,-0.26
17.604000000000003,-0.26
17.608,-0.26
17.612000000000002,-0.26
17.616,-0.26
17.62,-0.26
17.624000000000002,-0.26
17.628,-0.26
17.632,-0.26
17.636,-0.26
17.64,-0.26
17.644000000000002,-0.26
17.648,-0.25
17.652,-0.25
17.656,-0.24
17.66,-0.24
17.664,-0.24
17.668,-0.24
17.672,-0.23500000000000001
17.676,-0.22999999999999998
17.68,-0.22999999999999998
17.684,-0.22999999999999998
17.688,-0.225
17.692,-0.22000000000000003
17.695999999999998,-0.2
17.7,-0.18000000000000002
17.704,-0.17500000000000002
17.708,-0.17
17.712,-0.16000000000000003
17.716,-0.15000000000000002
17.72,-0.13999999999999999
17.724,-0.125
17.728,-0.10500000000000001
17.732,-0.1
17.736,-0.095
17.740000000000002,-0.09000000000000001
17.744,-0.085
17.748,-0.08000000000000002
17.752000000000002,-0.07500000000000001
17.756,-0.06999999999999999
17.76,-0.06
17.764000000000003,-0.05
17.768,-0.05
17.772000000000002,-0.034999999999999996
17.776,-0.020000000000000004
17.78,-0.020000000000000004
17.784000000000002,-0.010000000000000002
17.788,-0.010000000000000002
17.792,0.0
17.796,0.015
17.8,0.020000000000000004
17.804000000000002,0.015
17.808,0.010000000000000002
17.812,0.010000000000000002
17.816,0.010000000000000002
17.82,0.010000000000000002
17.824,0.010000000000000002
17.828,0.010000000000000002
17.832,0.010000000000000002
17.836,0.010000000000000002
17.84,0.0
17.844,0.0
17.848,0.0
17.852,0.0
17.855999999999998,0.0
17.86,0.005000000000000001
17.864,0.010000000000000002
17.868,0.010000000000000002
17.872,0.010000000000000002
17.876,0.010000000000000002
17.88,0.010000000000000002
17.884,0.010000000000000002
17.888,0.010000000000000002
17.892,0.010000000000000002
17.896,0.010000000000000002
17.900000000000002,0.010000000000000002
17.904,0.010000000000000002
17.908,0.010000000000000002
17.912000000000003,0.010000000000000002
17.916,0.010000000000000002
17.92,0.010000000000000002
17.924000000000003,0.010000000000000002
17.928,0.010000000000000002
17.932000000000002,0.0
17.936,0.0
17.94,0.0
17.944000000000003,0.0
17.948,0.0
17.952,0.010000000000000002
17.956,0.010000000000000002
17.96,0.0
17.964000000000002,0.0
17.968,0.0
17.972,0.0
17.976,0.0
17.98,0.0
17.984,0.0
17.988,0.010000000000000002
17.992,0.010000000000000002
17.996,0.010000000000000002
18.0,0.010000000000000002
18.004,0.010000000000000002
18.008,0.0
18.012,0.0
18.016,0.0
18.02,0.0
18.024,0.0
18.028,0.010000000000000002
18.032,0.010000000000000002
18.035999999999998,0.010000000000000002
18.04,0.010000000000000002
18.044,0.010000000000000002
18.048,0.0
18.052,0.0
18.056,0.0
18.06,0.010000000000000002
18.064,0.010000000000000002
18.068,0.010000000000000002
18.072,0.010000000000000002
18.076,0.010000000000000002
18.080000000000002,0.010000000000000002
18.084,0.010000000000000002
18.088,0.010000000000000002
18.092000000000002,0.010000000000000002
18.096,0.010000000000000002
18.1,0.010000000000000002
18.104000000000003,0.010000000000000002
18.108,0.010000000000000002
18.112000000000002,0.010000000000000002
18.116,0.010000000000000002
18.12,0.010000000000000002
18.124000000000002,0.010000000000000002
18.128,0.010000000000000002
18.132,0.010000000000000002
18.136,0.010000000000000002
18.14,0.010000000000000002
18.144000000000002,0.010000000000000002
18.148,0.010000000000000002
18.152,0.010000000000000002
18.156,0.010000000000000002
18.16,0.010000000000000002
18.164,0.010000000000000002
18.168,0.010000000000000002
18.172,0.010000000000000002
18.176,0.010000000000000002
18.18,0.010000000000000002
18.184,0.010000000000000002
18.188,0.0
18.192,0.0
18.195999999999998,0.0
18.2,0.0
18.204,0.0
18.208,0.0
18.212,0.010000000000000002
18.216,0.010000000000000002
18.22,0.010000000000000002
18.224,0.010000000000000002
18.228,0.010000000000000002
18.232,0.010000000000000002
18.236,0.0
18.240000000000002,0.0
18.244,0.0
18.248,-0.010000000000000002
18.252000000000002,-0.010000000000000002
18.256,-0.020000000000000004
18.26,-0.03
18.264000000000003,-0.04000000000000001
18.268,-0.05
18.272000000000002,-0.05
18.276,-0.06
18.28,-0.06999999999999999
18.284000000000002,-0.06999999999999999
18.288,-0.08000000000000002
18.292,-0.08000000000000002
18.296,-0.09000000000000001
18.3,-0.09000000000000001
18.304000000000002,-0.09000000000000001
18.308,-0.1
18.312,-0.1
18.316,-0.11000000000000001
18.32,-0.11000000000000001
18.324,-0.11000000000000001
18.328,-0.10500000000000001
18.332,-0.1
18.336,-0.1
18.34,-0.1
18.344,-0.1
18.348,-0.1
18.352,-0.1
18.355999999999998,-0.09000000000000001
18.36,-0.08000000000000002
18.364,-0.06999999999999999
18.368,-0.06999999999999999
18.372,-0.06999999999999999
18.376,-0.06
18.38,-0.06
18.384,-0.05
18.388,-0.04000000000000001
18.392,-0.03
18.396,-0.03
18.400000000000002,-0.020000000000000004
18.404,-0.010000000000000002
18.408,-0.010000000000000002
18.412000000000003,0.0
18.416,0.0
18.42,0.0
18.424000000000003,0.0
18.428,0.010000000000000002
18.432000000000002,0.010000000000000002
18.436,0.010000000000000002
18.44,0.010000000000000002
18.444000000000003,0.010000000000000002
18.448,0.010000000000000002
18.452,0.010000000000000002
18.456,0.010000000000000002
18.46,0.010000000000000002
18.464000000000002,0.010000000000000002
18.468,0.010000000000000002
18.472,0.010000000000000002
18.476,0.010000000000000002
18.48,0.010000000000000002
18.484,0.010000000000000002
18.488,0.010000000000000002
18.492,0.010000000000000002
18.496,0.010000000000000002
18.5,0.010000000000000002
18.504,0.010000000000000002
18.508,0.010000000000000002
18.512,0.010000000000000002
18.516,0.010000000000000002
18.52,0.010000000000000002
18.524,0.020000000000000004
18.528,0.020000000000000004
18.532,0.010000000000000002
18.535999999999998,0.010000000000000002
18.54,0.010000000000000002
18.544,0.010000000000000002
18.548,0.010000000000000002
18.552,0.010000000000000002
18.556,0.010000000000000002
18.56,0.010000000000000002
18.564,0.010000000000000002
18.568,0.010000000000000002
18.572,0.010000000000000002
18.576,0.020000000000000004
18.580000000000002,0.034999999999999996
18.584,0.04000000000000001
18.588,0.05500000000000001
18.592000000000002,0.020000000000000004
18.596,-0.015
18.6,-0.07500000000000001
18.604000000000003,-0.125
18.608,-0.16000000000000003
18.612000000000002,-0.21000000000000002
18.616,-0.255
18.62,-0.31000000000000005
18.624000000000002,-0.375
18.628,-0.41
18.632,-0.44500000000000006
18.636,-0.505
18.64,-0.58
18.644000000000002,-0.635
18.648,-0.68
18.652,-0.7250000000000001
18.656,-0.77
18.66,-0.82
18.664,-0.8500000000000001
18.668,-0.8800000000000001
18.672,-0.8400000000000001
18.676,-0.8
18.68,-0.735
18.684,-0.67
18.688,-0.5950000000000001
18.692,-0.54
18.695999999999998,-0.49500000000000005
18.7,-0.44500000000000006
18.704,-0.38
18.708,-0.305
18.712,-0.26
18.716,-0.22000000000000003
18.72,-0.15000000000000002
18.724,-0.08000000000000002
18.728,-0.020000000000000004
18.732,0.045000000000000005
18.736,0.08000000000000002
18.740000000000002,0.08000000000000002
18.744,0.09000000000000001
18.748,0.08000000000000002
18.752000000000002,0.06999999999999999
18.756,0.06
18.76,0.05
18.764000000000003,0.04000000000000001
18.768,0.03
18.772000000000002,0.015
18.776,0.010000000000000002
18.78,0.015
18.784000000000002,0.020000000000000004
18.788,0.020000000000000004
18.792,0.020000000000000004
18.796,0.020000000000000004
18.8,0.020000000000000004
18.804000000000002,0.020000000000000004
18.808,0.020000000000000004
18.812,0.020000000000000004
18.816,0.020000000000000004
18.82,0.020000000000000004
18.824,0.020000000000000004
18.828,0.020000000000000004
18.832,0.020000000000000004
18.836,0.020000000000000004
18.84,0.020000000000000004
18.844,0.020000000000000004
18.848,0.025
18.852,0.034999999999999996
18.855999999999998,0.04000000000000001
18.86,0.034999999999999996
18.864,0.020000000000000004
18.868,0.020000000000000004
18.872,0.020000000000000004
18.876,0.020000000000000004
18.88,0.020000000000000004
18.884,0.020000000000000004
18.888,0.020000000000000004
18.892,0.020000000000000004
18.896,0.020000000000000004
18.900000000000002,0.020000000000000004
18.904,0.020000000000000004
18.908,0.020000000000000004
18.912000000000003,0.020000000000000004
18.916,0.010000000000000002
18.92,0.010000000000000002
18.924000000000003,0.0
18.928,-0.010000000000000002
18.932000000000002,-0.010000000000000002
18.936,-0.020000000000000004
18.94,-0.03
18.944000000000003,-0.04000000000000001
18.948,-0.05
18.952,-0.05
18.956,-0.06
18.96,-0.08000000000000002
18.964000000000002,-0.09000000000000001
18.968,-0.095
18.972,-0.1
18.976,-0.1
18.98,-0.11000000000000001
18.984,-0.125
18.988,-0.13999999999999999
18.992,-0.15000000000000002
18.996,-0.16000000000000003
19.0,-0.16000000000000003
19.004,-0.17
19.008,-0.18000000000000002
19.012,-0.19
19.016,-0.205
19.02,-0.21000000000000002
19.024,-0.215
19.028,-0.22000000000000003
19.032,-0.22999999999999998
19.035999999999998,-0.22000000000000003
19.04,-0.22000000000000003
19.044,-0.22000000000000003
19.048,-0.22999999999999998
19.052,-0.22999999999999998
19.056,-0.24
19.06,-0.24
19.064,-0.24
19.068,-0.25
19.072,-0.25
19.076,-0.25
19.080000000000002,-0.25
19.084,-0.25
19.088,-0.25
19.092000000000002,-0.25
19.096,-0.25
19.1,-0.24
19.104000000000003,-0.24
19.108,-0.24
19.112000000000002,-0.24
19.116,-0.22999999999999998
19.12,-0.22999999999999998
19.124000000000002,-0.22999999999999998
19.128,-0.22999999999999998
19.132,-0.22999999999999998
19.136,-0.22999999999999998
19.14,-0.22999999999999998
19.144000000000002,-0.22999999999999998
19.148,-0.225
19.152,-0.22000000000000003
19.156,-0.21000000000000002
19.16,-0.2
19.164,-0.19
19.168,-0.19
19.172,-0.18000000000000002
19.176,-0.17
19.18,-0.16000000000000003
19.184,-0.15000000000000002
19.188,-0.13999999999999999
19.192,-0.13999999999999999
19.195999999999998,-0.13
19.2,-0.12
19.204,-0.11000000000000001
19.208,-0.1
19.212,-0.09000000000000001
19.216,-0.08000000000000002
19.22,-0.06999999999999999
19.224,-0.06999999999999999
19.228,-0.06
19.232,-0.05
19.236,-0.04000000000000001
19.240000000000002,-0.03
19.244,-0.020000000000000004
19.248,-0.020000000000000004
19.252000000000002,-0.010000000000000002
19.256,0.0
19.26,0.0
19.264000000000003,0.010000000000000002
19.268,0.020000000000000004
19.272000000000002,0.020000000000000004
19.276,0.020000000000000004
19.28,0.020000000000000004
19.284000000000002,0.020000000000000004
19.288,0.020000000000000004
19.292,0.020000000000000004
19.296,0.020000000000000004
19.3,0.020000000000000004
19.304000000000002,0.020000000000000004
19.308,0.020000000000000004
19.312,0.020000000000000004
19.316,0.020000000000000004
19.32,0.020000000000000004
19.324,0.015
19.328,0.010000000000000002
19.332,0.015
19.336,0.020000000000000004
19.34,0.020000000000000004
19.344,0.020000000000000004
19.348,0.020000000000000004
19.352,0.020000000000000004
19.355999999999998,0.020000000000000004
19.36,0.020000000000000004
19.364,0.020000000000000004
19.368,0.020000000000000004
19.372,0.020000000000000004
19.376,0.020000000000000004
19.38,0.020000000000000004
19.384,0.020000000000000004
19.388,0.020000000000000004
19.392,0.020000000000000004
19.396,0.020000000000000004
19.400000000000002,0.020000000000000004
19.404,0.020000000000000004
19.408,0.020000000000000004
19.412000000000003,0.020000000000000004
19.416,0.020000000000000004
19.42,0.010000000000000002
19.424000000000003,0.010000000000000002
19.428,0.010000000000000002
19.432000000000002,0.010000000000000002
19.436,0.010000000000000002
19.44,0.020000000000000004
19.444000000000003,0.020000000000000004
19.448,0.010000000000000002
19.452,0.010000000000000002
19.456,0.010000000000000002
19.46,0.010000000000000002
19.464000000000002,0.010000000000000002
19.468,0.010000000000000002
19.472,0.010000000000000002
19.476,0.010000000000000002
19.48,0.010000000000000002
19.484,0.010000000000000002
19.488,0.010000000000000002
19.492,0.010000000000000002
19.496,0.010000000000000002
19.5,0.010000000000000002
19.504,0.010000000000000002
19.508,0.010000000000000002
19.512,0.010000000000000002
19.516,0.010000000000000002
19.52,0.010000000000000002
19.524,0.010000000000000002
19.528,0.010000000000000002
19.532,0.010000000000000002
19.535999999999998,0.010000000000000002
19.54,0.010000000000000002
19.544,0.010000000000000002
19.548,0.010000000000000002
19.552,0.010000000000000002
19.556,0.010000000000000002
19.56,0.010000000000000002
19.564,0.010000000000000002
19.568,0.010000000000000002
19.572,0.010000000000000002
19.576,0.010000000000000002
19.580000000000002,0.010000000000000002
19.584,0.010000000000000002
19.588,0.010000000000000002
19.592000000000002,0.010000000000000002
19.596,0.010000000000000002
19.6,0.010000000000000002
19.604000000000003,0.010000000000000002
19.608,0.0
19.612000000000002,0.010000000000000002
19.616,0.010000000000000002
19.62,0.010000000000000002
19.624000000000002,0.010000000000000002
19.628,0.0
19.632,0.010000000000000002
19.636,0.010000000000000002
19.64,0.010000000000000002
19.644000000000002,0.010000000000000002
19.648,0.010000000000000002
19.652,0.010000000000000002
19.656,0.010000000000000002
19.66,0.010000000000000002
19.664,0.010000000000000002
19.668,0.010000000000000002
19.672,0.010000000000000002
19.676,0.010000000000000002
19.68,0.010000000000000002
19.684,0.010000000000000002
19.688,0.010000000000000002
19.692,0.010000000000000002
19.695999999999998,0.010000000000000002
19.7,0.010000000000000002
19.704,0.010000000000000002
19.708,0.010000000000000002
19.712,0.010000000000000002
19.716,0.005000000000000001
19.72,-0.010000000000000002
19.724,-0.020000000000000004
19.728,-0.020000000000000004
19.732,-0.03
19.736,-0.04000000000000001
19.740000000000002,-0.04000000000000001
19.744,-0.05
19.748,-0.06
19.752000000000002,-0.06999999999999999
19.756,-0.06999999999999999
19.76,-0.08000000000000002
19.764000000000003,-0.08000000000000002
19.768,-0.08000000000000002
19.772000000000002,-0.085
19.776,-0.09000000000000001
19.78,-0.09000000000000001
19.784000000000002,-0.1
19.788,-0.1
19.792,-0.11000000000000001
19.796,-0.11000000000000001
19.8,-0.11000000000000001
19.804000000000002,-0.11000000000000001
19.808,-0.1
19.812,-0.1
19.816,-0.1
19.82,-0.1
19.824,-0.1
19.828,-0.1
19.832,-0.09000000000000001
19.836,-0.08000000000000002
19.84,-0.08000000000000002
19.844,-0.06999999999999999
19.848,-0.06999999999999999
19.852,-0.06
19.855999999999998,-0.05500000000000001
19.86,-0.05
19.864,-0.04000000000000001
19.868,-0.03
19.872,-0.025
19.876,-0.020000000000000004
19.88,-0.010000000000000002
19.884,-0.010000000000000002
19.888,0.0
19.892,0.0
19.896,0.0
19.900000000000002,0.0
19.904,0.0
19.908,0.0
19.912000000000003,0.0
19.916,0.0
19.92,0.010000000000000002
19.924000000000003,0.010000000000000002
19.928,0.010000000000000002
19.932000000000002,0.010000000000000002
19.936,0.010000000000000002
19.94,0.010000000000000002
19.944000000000003,0.0
19.948,0.0
19.952,0.0
19.956,0.0
19.96,0.0
19.964000000000002,0.0
19.968,0.0
19.972,0.0
19.976,0.0
19.98,0.0
19.984,0.0
19.988,0.0
19.992,0.0
19.996,0.0
20.0,0.0
20.004,0.0
20.008,0.0
20.012,0.0
20.016,0.0
20.02,0.0
20.024,0.0
20.028,0.0
20.032,0.0
20.035999999999998,0.0
20.04,0.0
20.044,0.010000000000000002
20.048,0.010000000000000002
20.052,0.020000000000000004
20.056,0.020000000000000004
20.06,0.04000000000000001
20.064,0.0475
20.068,0.01600000000000023
20.072,-0.034999999999999996
20.076,-0.06999999999999999
20.080000000000002,-0.11000000000000001
20.084,-0.17500000000000002
20.088,-0.24
20.092000000000002,-0.29
20.096,-0.33
20.1,-0.37000000000000005
20.104000000000003,-0.42500000000000004
20.108,-0.485
20.112000000000002,-0.55
20.116,-0.61
20.12,-0.65
20.124000000000002,-0.6900000000000001
20.128,-0.7450000000000001
20.132,-0.81
20.136,-0.8500000000000001
20.14,-0.8500000000000001
20.144000000000002,-0.8800000000000001
20.148,-0.8300000000000001
20.152,-0.785
20.156,-0.7150000000000001
20.16,-0.65
20.164,-0.61
20.168,-0.555
20.172,-0.485
20.176,-0.43
20.18,-0.37000000000000005
20.184,-0.32000000000000006
20.188,-0.275
20.192,-0.21000000000000002
20.195999999999998,-0.135
20.2,-0.06
20.204,-0.005000000000000001
20.208,0.03
20.212,0.05500000000000001
20.216,0.07500000000000001
20.22,0.06
20.224,0.06
20.228,0.05
20.232,0.04000000000000001
20.236,0.03
20.240000000000002,0.03
20.244,0.020000000000000004
20.248,0.010000000000000002
20.252000000000002,0.010000000000000002
20.256,0.010000000000000002
20.26,0.010000000000000002
20.264000000000003,0.005000000000000001
20.268,0.0
20.272000000000002,0.0
20.276,0.0
20.28,
20.284000000000002,
20.288,
20.292,
20.296,
20.3,
20.304000000000002,
20.308,
20.312,
20.316,
20.32,
20.324,
20.328,
20.332,
20.336,
20.34,
20.344,
20.348,
20.352,
20.355999999999998,
20.36,
20.364,
20.368,
20.372,
20.376,
20.38,
20.384,
20.388,
20.392,
20.396,
20.400000000000002,
20.404,
20.408,
20.412000000000003,
20.416,
20.42,
20.424000000000003,
20.428,
20.432000000000002,
20.436,
20.44,
20.444000000000003,
20.448,
20.452,
20.456,
20.46,
20.464000000000002,
20.468,
20.472,
